2109959
13209735
559397
18383872
6557788
21055804
4211848
16540
10522624
18962445
22024404
6046860
426564
1872064
10694792
18978822
9494660
5783680
5111970
17335466
3736500
794656
5341226
17413376
28174338
4767881
15999876
10682994
11018516
21374160
5509201
699557
10773002
10490186
2498561
4325765
22545733
399
3506245
8397108
1447996
6882945
1727144
426529
8924688
12693544
19546754
11769986
16777332
13112871
25298020
10576292
1138755
21009448
687178
9781910
25709994
2378417
250520
21431040
4727936
16983444
7221760
10890
12599309
8931333
5245027
805569
934160
16990296
1184424
25514240
11573312
3775821
4392080
21512498
705548
5546649
26218922
13664515
4200532
23855173
2372170
8959154
5792384
1708214
14696538
27534985
2362520
344324
19928851
18891416
17041484
17368258
4652
4347192
4721808
25505920
4522624
631009
2689314
21546758
670720
8618529
29885266
1548416
20990850
303554
21031936
12782097
29393740
18497920
149844
811072
1731845
17113320
4859937
6891268
18351110
1647617
4366449
25854436
12663056
4587790
4203008
75812
266584
8072200
18352738
17662318
12980858
29491717
17209473
6729728
21585920
6033408
2953442
803488
21102989
2220546
21513218
19106568
10498720
468048
672794
17846048
875016
10355740
13410832
17044236
1678848
26087447
3703124
9488
19413008
24646712
229697
17041834
5521409
32276484
22128640
602306
19188352
14172674
13435168
2101504
8073479
14287171
8896608
3181652
9176064
99100
20971794
855463
29982785
5247105
4747464
16868960
14681042
8912946
8794192
1376577
7872580
4793668
1382435
1068249
21773506
138368
18888741
6428802
197456
8662274
3699721
5010195
17076353
5310472
835648
4382920
21028006
262144
31903776
11603974
3551360
11042856
3014722
345218
5296128
1090117
11141984
1138990
1084226
926488
21561744
2359568
5243049
31000666
4367752
2105877
5841664
3465732
3705436
1316996
2098741
11862287
12653624
1280256
11539969
21776296
12886043
9445770
4384784
1060948
11669532
4787232
25764126
25409856
4325666
8395376
3363972
7374978
10502240
2315673
19597572
3218450
34124
4909637
131774
360526
19292161
17371748
1512584
25698306
19087360
8757763
4311984
6637088
12607616
4199464
1324165
17563677
3196328
14975009
10668802
5283888
1083414
3320002
2133264
18166400
2425524
267281
17980832
1625172
27281177
8410145
6651976
29000202
459857
17358090
28678276
24953402
21324322
16777263
17368464
12454112
1049105
327745
8526434
9035972
6320718
1132679
17418370
66649
8653864
12714256
25717
4194364
11772064
6423556
14184450
29762857
575744
17170434
10504493
1239042
16779264
6369333
410128
23599105
12599390
10881157
8522756
11700554
8683648
2015240
2258048
12853618
4819461
12777256
3179608
26216716
19423528
7366289
13897013
5408146
23101952
4232227
21286944
26520225
6165000
1847298
2724000
10754050
5935153
4203024
17076808
10289681
19012114
12738600
10027088
7930549
11106
917801
18007633
4729670
9585155
4244052
1186188
22193163
1213953
30141648
2627122
17335354
205321
14729636
4849792
114708
1476134
14861385
14727202
10762890
30031881
10621120
9603232
18940993
8601129
57408
591060
1360163
4589696
27427616
12613482
17040356
5242914
20171089
4199472
11569316
17974024
23808718
41331
10486114
271883
141635
1114761
12665680
19185920
8406368
8407042
1188640
8915633
8557136
1130568
544965
25240156
5767817
614856
14432
1052866
2201605
1507396
22267665
22545157
9527688
3479296
1142957
8794772
3440670
2122786
4196922
5310496
12927380
1849928
14770176
25038848
32945
18200680
4368066
16848324
22327296
12583018
32376840
10511944
82450
524839
18890308
592548
25244304
4294665
7438464
14746625
17990124
19546760
1588758
8520189
2998416
16941072
8164869
8392921
6031392
21376012
8409362
6314312
25854096
26780865
1857666
12702720
2114067
501768
2097198
12595216
2251264
23401672
931392
23502034
28508169
10227778
4523152
615224
4506634
1090145
2823301
6295680
21017168
25579596
21708820
57632
1575440
141008
14293632
131194
5823500
3802580
13010946
22025224
12595230
336139
8634893
26239488
21108870
1672070
29884550
12847425
4948017
231264
797094
1081500
25755649
1180254
1173572
10502445
3240512
4786222
30474564
3480026
551001
6308228
8856001
14898263
19669508
4890390
793483
12884096
18417218
1209352
1450084
11027830
17842229
17696816
29903501
13124865
8439950
17932802
17526812
10486670
19940352
10749764
14812292
8545506
1151754
2113968
19183626
17826695
1057432
3199560
1065297
1572902
16914560
4733230
10885188
9448986
74757
41640
3180082
8405008
8523796
4923654
21103488
168022
19075424
3424797
2097570
9568329
2626116
98344
11206988
36897
27821104
8455682
395304
17918082
18907987
5326344
21323842
23134300
25428145
4305028
295048
12582960
5169
5309152
1182267
8954596
12904486
6423306
5777809
10899546
11599936
1181218
25379268
3113502
12592392
25200644
279586
5006381
31592522
9760616
41588
18956352
2374508
3448864
9737741
2785640
9082934
25457061
529664
4476472
2638170
200001
1060096
32645316
1851462
17447972
23726417
6767156
17956948
12428
19014941
27401664
17836367
4457904
22845504
31534099
17694734
2387008
46432
4891172
1674696
11060418
6959129
28060674
3850440
20064785
268475
23085073
10567680
5136592
8413638
19929416
22132786
5287700
139918
2130208
23876608
19289
14682425
4327501
14942826
4600488
22512704
1052932
434219
307409
14977550
9725018
4256902
7504782
12613986
20779888
27540413
294988
1313300
165857
12724832
5662224
18056279
4768830
2130220
21234212
4281089
10490898
12624067
28460032
6562953
31995008
18022528
3155970
24184961
12492808
10748954
5022788
8913288
2312
16849039
3413592
1115688
2835544
4408440
18154632
1704192
13377868
802860
17974338
20063388
595552
21136130
1375276
12720257
23270422
11571251
23117881
2179082
25173025
17983603
10879812
1610058
30511624
19399296
21506788
4271360
26288148
4284948
11373328
2161940
13797504
225536
1111
25595544
2236896
17957955
1282442
8709705
2924738
3163136
21010112
3163817
29098176
7372872
583680
8418439
3498241
215173
808
22021644
8754473
4268758
243
533120
21405092
3493522
102696
4198497
7712
3686993
29368353
23855233
1164137
4981896
466708
4386080
12583734
22020488
266816
622930
172061
18255890
1311254
13336656
25166070
21185928
4290313
16822296
109152
5029892
25953075
10487127
19660924
11583682
8127811
4362312
6315144
18892833
2641921
28426241
16780868
1225482
2197436
17967780
2097952
16793611
4392089
21305344
18239538
12649794
17523733
279360
5638356
9306116
2494722
23733504
12656128
4196457
10494631
16844828
6553832
17440912
9177530
16834576
6297717
4238856
6435087
3736705
278565
557248
754961
862784
25496132
10846214
575067
4862231
427050
23659186
190848
28066304
2425154
18895149
2705112
25223187
18555648
18107910
17454130
8782340
23233714
16977600
9315232
23334448
12615745
4277612
26314770
14961248
9175872
805153
5400888
2655756
26414496
12898321
3286449
10829877
20111424
13672968
9968168
591690
17302828
18877732
13112088
18362496
3172581
5636104
11543088
12832072
16534536
17510432
25181220
4736080
2212133
5244928
24140293
3277440
8571657
7350274
4476970
21201164
3671306
2142217
12687872
57377
1481357
5309475
26239040
4309261
8402590
103181
1061028
2490186
25321621
461890
3804993
23330835
7350305
17044549
81985
17334435
25912428
10129512
16779276
12292
1857026
2163524
262148
11309579
1102422
2753030
7504561
16801831
1189952
12587107
3163008
2164041
6299910
26476570
2387150
17170560
16801553
15959302
22151254
16790064
4123
8429589
4852552
1657860
15794292
16860266
16849440
9830530
8440834
65968
5332480
2695556
31738884
3194973
22332048
20994128
3835060
8864301
10486025
9445658
696832
11872268
31596930
18841888
10855040
172416
270353
677697
21055107
4219136
17318562
2702350
4344923
1265682
553778
10061827
4194897
22039048
12617030
12724284
49341
11618832
8465561
41283
25319508
4475208
6709635
9463072
9001193
938003
30605956
2855942
9804346
18874488
30507136
12998064
2733704
22954032
701478
525316
4203778
810511
18041032
27305157
13404256
5555059
8520928
338635
28713732
12585360
10502202
5278988
8525010
20981536
1055017
5972233
8978595
12880400
16877722
27603283
2523720
1668608
27263283
11117593
17846284
17825872
2185857
4300929
23999362
10725448
13402432
4195938
540746
1213475
22138977
1382446
821281
2540812
12107980
6861053
13648498
17440780
31531044
13862416
4346003
72737
8388707
17613440
10535043
4311792
16908330
4243589
697008
4001809
9504769
14947354
25447440
19506884
404547
86148
18415656
13688448
7159808
2744840
945
140394
278673
5260384
9571040
12640448
3171927
35113
20987974
12772418
525481
20447360
1584197
17302661
31490720
34878
3150546
7377619
152066
102664
9577301
19202054
8651904
17827934
5816609
573536
19628612
27297098
29803008
17326869
20457768
21039488
294924
282944
265248
1118255
12644884
14733512
25404961
2504
18382914
18875136
9222147
21116321
1103462
10513153
17899536
1867941
263492
8298
9339205
2887816
198913
10488998
6967365
19027280
17746504
21104960
1120324
55585
17646407
917667
18066517
23317520
803154
1150567
2163978
17318982
9962056
13115528
427402
10584832
32803204
10494540
4211212
6326428
8753185
35082
5144864
26286728
29455699
17010209
43224
1051908
1648774
30146601
8421665
8727780
8673538
22352448
19601541
1790474
13149952
536972
47243
836227
148996
601634
21238032
788995
8782144
13108608
4837386
2500928
8988720
12087300
2557506
11256194
26479701
1097930
1818900
4211468
599405
29563157
201793
27365486
10682377
1786628
973894
7884816
17122448
66458
17096768
1072288
5116712
2646335
1519808
1089888
3055697
25829394
17046608
8650778
3187337
827394
9974864
1610292
3801161
9539114
25382978
10756276
26532288
983936
19095632
363016
21110832
21007618
18585649
17058893
6045816
12996615
657936
16794705
14368780
25187617
5316160
2229140
12124306
10757152
6367762
18951364
17932545
18874633
12661000
6816002
2105408
29624321
421445
657442
1159236
19468801
20119752
26218706
10518698
6230984
17827328
3409949
13675107
11145497
25659909
6325445
1860232
2814011
16796809
272000
2166817
8657212
1360229
1966545
25216236
18289200
10682564
805546
693770
4786710
20005285
29407574
25313312
2134025
26609160
268434
12671492
10509328
21378
19204624
2637837
2179588
66152
27012178
4388864
17959089
12714818
14827568
459402
1611904
12084188
1450241
17973250
19826704
2405696
4785323
9142310
6574170
4817096
11092402
1724432
22021136
184
5767181
15503692
1201319
4469796
2756008
13672522
3445828
6859945
26775731
19030028
17715296
4344329
23644169
17069160
13172802
676171
5300801
18423846
17367592
11128860
4571728
4997669
33921
21004584
291586
2753672
3475485
19279892
1341954
1623184
2170379
23093383
18089604
2400548
676481
11013201
5255320
12321680
26255984
856472
19734632
5768802
4235611
4194819
23103440
8472360
26257920
28344436
10766368
7626816
1381161
12976163
404626
1056824
3151872
19406434
1053257
5309697
1119938
8695477
16799201
2644482
4264587
13238816
12781760
8946972
2653892
590832
25236248
23514124
17408648
10357506
17325088
2155649
4472858
25723982
134164
5264004
4590611
8394280
17600073
18483840
2131978
4760147
2101051
2204568
2138121
9871372
9571328
10321
25168434
27408384
660545
10030100
593922
4255872
178442
328449
593232
2365512
15769796
12125446
149284
6415379
18974672
17764096
2953602
2367544
622610
41181
12618240
17308872
8500
4263942
17114510
5784
17385522
4277922
25760
19407331
22073
20975618
84288
10887178
2134274
8950017
24712738
4605154
1000080
18926108
1443972
21315656
22037796
4333580
4597505
22091272
2507654
19136690
1048913
512
787008
78083
22482946
2115802
582664
27312144
17956914
1061860
19010560
15866372
19042400
25592421
21135513
27265168
29723649
15861253
2264008
1441826
2052097
23570648
8388677
2359682
8410707
31501447
4531444
1984522
3514516
18639373
13295808
870677
14738566
22020265
10563648
1792524
18120712
1347909
29397080
1660955
21137668
567856
8701956
25723174
78002
27285568
27323137
8398110
27661796
8397074
16810569
15144000
13019981
112153
26064404
13018384
21367041
20971532
66176
6291468
6488339
30417416
19415186
17327120
16778261
7394823
49924
29920035
4350499
19318854
603584
4239402
807024
17616897
31212576
4505990
2102953
14684690
10592768
2417665
3801168
8686657
7242024
119760
17205346
1132127
22461248
8603654
6836737
16826911
1908752
18056349
17834080
557732
525672
19136648
4331545
2409648
12715331
346384
25329154
4981898
394586
13246660
149545
26247709
264738
26234883
22577737
9450252
12653232
8430400
22163713
26330370
1187873
19989590
9437552
20255297
24129569
26616216
10752914
6614080
1868057
5769562
9176613
25186308
14944801
17574159
13437204
9442857
17007139
3809300
9000997
2738177
5377168
17154560
738113
6693382
90524
1745936
20971862
10519646
2239490
7143961
4993157
22171669
18270976
2108096
26771896
21021442
27328648
3348
917506
4788564
13143552
26346884
14303240
16977922
16818226
8548
1708075
11027216
11080756
23598340
2122020
17039556
25197096
8552972
21260448
17871072
590637
10499084
26806808
3152008
9995
591108
2559044
2105482
1311745
7084464
4268164
13631498
9536
17197321
2506856
17115521
21087236
860617
4199302
25903123
16909604
8775461
8545957
1576676
132250
17874981
9090020
1671192
3346112
21653520
20191381
9568640
16802084
197174
606769
1196144
8454581
1049251
4213284
2397186
21250179
12591968
542576
5621834
10586113
11084896
3549504
8618187
410383
2393246
725000
171296
8918170
3212592
28314201
9642057
1245588
1583104
5337124
298528
6458646
11821249
3162112
2116224
25756694
534544
279296
8917120
41564
53903
1986708
1131026
2842904
33632
13374475
27658256
18899202
4782625
2121740
7676936
6553680
17320160
6032451
8403712
64289
26348553
10553630
8470544
1070322
16785548
7029760
4533252
377102
26292292
412544
72902
967680
10625317
11567112
9499010
4735616
10494030
23087244
1114658
6586379
25170256
365316
26613764
10823722
2373408
12654129
8741028
19432008
16799954
8651678
4489344
525057
1124353
724101
4220162
8405504
2134272
8710532
12618784
31228040
6586944
10400
25110528
158240
23102732
2730001
5376097
143881
10388003
4849824
8638748
9967824
8587522
541447
353664
5081410
12789871
14683020
1441953
17236622
12149042
18350485
8588288
4353290
332225
8458502
6434144
240908
17313214
132576
29392934
8467464
17891624
22694288
792216
72192
4719164
12699648
3017221
17686548
69853
6815805
622612
27309376
8922176
2696192
19482112
18745379
8426280
544848
61216
9456644
24250208
21006805
1362982
1091977
20974366
15958792
8406720
5550128
4591618
10125832
18089041
2498599
5333265
29365145
8815112
5800393
31553960
4859905
526912
2662544
6486146
21496512
21645825
12911712
9864325
25316456
2785696
4456704
21238182
5267717
20030660
2658960
9569745
4232590
17209914
6
6299836
14090276
3015203
1230752
1073538
10564386
1207592
2197000
4633360
159329
710476
4284555
141084
23480624
11653636
1138700
30067058
2198064
5266208
13951032
286862
9195574
16782080
9444576
401417
30442624
19277876
8526857
2430976
5582028
17310272
16797827
6456176
3711010
6973080
2507009
9769985
17858785
25755816
17306704
6160993
12694596
7864321
1346067
19734660
5001503
2288768
2519152
1902738
10634035
2252993
11708549
1093645
25465226
18875072
12599462
29368849
2171904
18884878
6363168
18483204
20972113
8589331
5252236
3572227
854304
10619664
346748
9765922
12882384
10062597
1131521
15048768
10495289
295041
4294866
611457
12595394
11701825
16843833
1183248
25194768
9454118
16851504
5604352
5652706
8527890
912524
3155200
17580258
6358064
16846936
5050529
4456652
21088229
8407090
4529220
13656801
682368
11183488
13667922
10637888
8561280
4953280
327976
1067048
21237926
32851104
8128080
16782447
10490310
262190
8948341
18360545
1586256
19925638
44951
12615834
17936
10092808
25221652
24756764
2722000
2181344
4984976
8130920
2380360
2942722
3420738
27297865
4272440
18876856
467319
4244201
9180484
2327051
19398664
17871873
424032
2883864
8478956
20775042
8394905
6202881
4360757
2376434
6685473
5407545
13370185
10502227
19172852
281453
10945810
8592896
15341721
15271944
4206789
10509572
30429456
2396369
340992
9175466
25411656
25700192
16844866
2262577
27560977
666885
19730944
316576
26477378
464289
19243073
6882115
4918288
8507584
8994948
7390211
5923200
17310997
17647626
16785833
25757217
20981268
1574052
7881929
26255498
27265114
21102632
1613990
16401536
11086081
9450520
29368384
4261964
29425666
4392462
18907402
4197984
4789825
1524769
4270625
22546784
11149672
1656570
1671168
1802756
6489384
311532
20082336
1084581
5453986
10618147
25726082
6299692
11633156
5017728
2245088
25165923
19431489
5515554
29837608
3181936
324640
10581136
16845065
27805724
16938
1345576
8684776
267796
6627345
14685604
954328
143628
10756128
525144
21416459
2363784
284689
673955
22022344
1786904
6032217
5244450
9048145
28923933
1133640
25202700
525378
786833
11960515
1313158
7741752
29392896
729602
2274426
5837122
25239908
2381065
1877122
13642241
689185
3350550
30205477
4586534
54484
2258176
17307654
17080320
558146
1589302
11489938
17073272
4751965
4462853
139911
8537603
2359637
4983440
23556658
4864114
17830560
51
8520353
18092544
1059875
942297
9437493
8397834
13137925
7768388
7078946
25262082
5247036
15879220
10543136
27992388
16978325
16797716
22424480
885888
10678417
17049909
2310978
4280064
17613200
1058309
1062976
17048329
8394369
29696042
25174786
19571008
11928084
286850
4033636
7004738
1196809
26214977
5656648
21651480
196609
789037
16810128
11145864
14748936
21890048
553505
4719156
360518
2476441
10493964
28657921
7184530
5455938
21041682
3990534
23175168
641024
25239845
31488516
9457751
18090176
6315011
8773540
25755982
20579104
4247592
5583104
10309889
7393360
5901602
3690503
1081548
328840
29526718
9454148
18879042
4407298
4481600
3167872
4466741
655875
14174208
2294788
1863681
68160
927861
8670256
18842304
151552
576032
17932304
8660512
27869186
17629908
540931
18909190
5103808
2785427
13764933
21311493
1114409
3286016
16262368
22187948
14075280
2300457
430625
17532275
9978395
4282368
27668995
6857857
146882
17863972
27399940
1115028
16681
18515108
11934745
4401312
5902368
2171652
1573385
4264613
6988
1607728
17904770
25904136
3285016
31560207
27920482
15894826
4472144
8527896
9769032
19005840
4265
1521665
18744328
21057562
289900
8922369
15337479
16793641
23118672
4345408
1116196
28058704
1851667
16844768
8847408
21235830
8449568
3031328
2383904
6318187
25265713
25764650
4727264
6619397
11161856
21664
1355296
29663556
23396385
10636961
19933056
4539920
4255762
82555
690232
21440554
2195779
76328
3446656
25659488
12063624
16893386
599072
17170473
188612
2230529
4720660
6332931
12780975
2441776
6392090
28463520
1476802
264785
6725851
8456748
21038130
379416
701056
31803522
10709120
525186
11640048
2179107
6864961
2910880
17838272
23084554
536640
262146
12588129
8667776
6964768
8784277
17784964
8531041
547337
4227848
22034976
71957
17287835
29954564
17344002
18613843
4247693
16926950
5391398
14688456
10502194
4231714
821258
1071432
1857541
18035723
21801004
13688842
16254469
18923553
17608738
21070864
25956388
31524864
22029776
22024704
2434641
2617736
4592784
1589523
18122306
4202626
4723728
52691
3843087
270341
722016
3291525
1122833
412528
3572746
16942086
2689513
5331223
20974726
29936002
551440
9470625
13110404
11042915
32506036
25188353
93709
24480260
2146617
8391210
4227154
19955728
10527236
4209745
283865
1120521
33385
7371016
4198723
17311681
327852
6332418
11546626
1073512
5244932
9617664
22770370
16842801
16783902
80946
4194884
812129
4359211
1418226
2719744
4915721
26745898
19465353
2332816
4336802
29509636
16949552
13459748
7398400
4735620
21020736
17056288
16977920
19270070
2101312
2156289
13648034
30673923
16914433
182351
17072336
18976780
443911
4525761
5277776
16779924
4326690
31854488
6291604
115009
30431526
10567822
16121936
25203208
3145773
11141889
12927554
4460848
4337136
21570410
6035493
18941341
18350089
134514
25706952
9853953
15238236
21234060
1580040
1467911
19236369
21151776
16925953
1411632
525860
9705540
18174416
1480997
5783982
23463448
3040520
1192208
29895461
21512262
1647301
2721364
30547972
1078467
6592137
2623488
19595538
312128
3675744
1624075
17432629
4227232
9496070
15876144
21246320
2496155
3932304
57488
12848681
17171462
306326
83106
701136
41160
17020934
19972096
8817074
22561824
197250
3200074
10658113
8949780
5246984
17058362
13077012
9576578
2121788
606208
18406800
369362
8126546
41574
2585798
9012412
14878752
17842488
32510167
147789
8417316
11010228
4989954
1704688
8872321
2361455
23189912
8856212
25785632
2100960
6299394
12699082
16886786
3145890
4797474
5247519
1096224
17346567
2568240
22872649
2123792
11536937
22489984
9437364
9475592
10889552
21299728
4866065
275042
18043958
8461584
25206536
25199873
532743
9338
13108232
176192
5509640
16992260
3801770
3479755
19199106
17318924
4209800
17348756
7348234
3178648
17600536
25216002
553486
1196564
7503953
4330185
4195113
20449970
5375025
10516088
2162746
20493441
21664073
188636
9870402
6442768
17574992
432770
3506182
15765568
11149488
1124808
8521728
787363
34827
16945156
3517738
9475761
4464929
11378944
5311404
5244056
660501
1582976
5521440
10054664
25833760
33796
1132964
246798
5338513
67125
27658442
199744
31606828
2883982
8388898
26260228
2302418
25191424
12855068
1090214
156452
8457070
9308674
27787394
5575774
13075088
14686268
280578
7602978
13193732
2236608
4297776
8751668
23868672
25641536
19500032
8683795
9961893
446821
4223265
2394640
18518040
16778352
426216
710176
8430634
8519816
18121000
22609940
16861192
4787488
9492992
16855297
6553660
3068416
13636352
10906654
17048098
1057304
17330752
4333888
26478593
13890
13633866
13193408
1729107
4405248
15503504
19991808
141463
12599298
2363429
483329
31547872
153737
4278284
596099
11973104
2363028
4341763
4207120
2097704
16957440
1840400
1114689
22096256
4740208
21082121
9589010
18613056
20977764
198162
786705
11874368
11538716
599396
6768464
2435234
21783600
13066276
28180738
15742216
20982528
281768
4194952
18482178
18387243
21252916
19009584
6064200
3164865
1835028
264320
4199047
12847108
2842696
25297176
18883278
10113301
1345668
2686982
21058692
17041856
5571296
4849800
2637845
281365
23134720
16836609
1155844
8872228
9441696
17992724
21037395
19008040
11929416
524832
2376770
26347521
17104932
10508352
20841057
1220358
11276390
29557765
16787210
25481811
10642434
40391
26382372
20087363
5876305
6349826
9057315
3801093
5275692
2310159
1122528
27566208
417793
15104
6816121
2101536
8394146
4393024
4390944
8455046
244387
29414408
786737
10235910
16844152
3201
4262144
2703521
9480007
148225
3801952
772432
625696
32178342
28331574
18910307
8389176
1573314
330914
6333938
1081896
41590
2892056
26667056
152650
165005
18360330
396400
27395092
6316162
535596
21004306
25251201
25350
16783876
18390720
16812565
25248264
1704464
11206658
22675492
4571725
4417798
12896425
5521706
1055812
17039374
13649936
8454417
18913602
615984
15737605
21037560
16863450
1456160
2234592
9275408
256042
11821280
14715489
17302113
8424452
25444609
673282
3440648
7348369
6946918
729792
2129920
90436
336519
164938
1082734
154560
4727874
2141205
74512
4380036
24418369
1974697
9476
9454212
790057
7095699
7750818
9211024
19169360
1495394
529525
196773
27895749
17013256
8662048
17009666
250400
401732
9110792
17051700
18945
17367112
825188
4391937
18089221
206082
16777237
14979092
4526233
8500992
9502989
2531466
2360870
21170712
16810125
17039498
233626
299608
25367332
791296
17691
4756004
8486983
394012
17885802
9646080
2123906
8704002
6553900
1378377
24678921
4753440
84548
30409738
18997250
340098
25372744
14025876
7346464
9476139
625938
8397060
1196560
10657088
20981778
4527142
13248645
45954
526986
17301572
2425971
4879028
3162181
565334
5794016
19953792
786625
5932432
25445377
30937408
29886540
6294097
17121370
25805136
22567170
1231362
9044484
17252386
17371657
1961216
5393152
3688656
637700
17942532
4296748
17253441
16777752
569411
327947
6494226
16786817
13635599
11276353
9540617
2130961
299982
22547523
1059017
8718118
16451
1232932
12617516
8454913
4243732
18092304
2698256
1126928
421960
20972035
4552224
7571028
528454
17523973
1459536
9197586
9066274
8439808
5510804
3352608
10234513
17893393
2761995
23399592
8455497
19992580
1328640
229422
20393859
18252800
21695240
5152792
16928912
673426
21827
1114155
2695464
21092702
1141107
17616937
147484
65580
92545
5017988
3203347
984096
414446
5378641
16781060
8001550
1245241
2362952
19597696
19056689
2248073
28903560
4789384
4632896
8848481
2712136
12943620
22156609
1116678
4424067
22282640
120925
4404420
2559648
25182228
18884867
17515013
144649
29921456
25318024
566022
12058648
7258528
335877
16847637
17201226
5473812
4209529
2396218
6559106
169131
7606312
19007488
30487846
2756672
16942637
82528
12066385
139568
21072820
923698
786560
5293673
30098593
5505216
18359809
533674
9464986
12738677
25495682
9765105
15970866
10509586
2110048
23115794
2105932
270953
3718676
28065825
2162725
18354240
11212866
431904
6558756
29664771
5320800
3408162
132628
2754008
2375698
19008549
12621833
677536
22545925
12583832
18163907
16802977
233728
29907016
5966276
19462
927898
10504329
27267084
2269498
3148046
3262546
2647069
28313796
16798864
671296
8783360
36192
271048
20078656
380975
8650823
12716038
2191945
6365464
17957464
17596690
18088003
17867274
16287904
20906769
20791432
3277229
9437699
13111445
20415312
1671372
21581954
29380625
12582996
28381201
1528321
8525312
19486276
4629260
4325593
18423872
3475488
7120898
4327683
18874476
10486095
263297
10880648
18939928
6358912
3687696
21508129
1376453
567096
22413357
17041570
11542612
18409636
7382288
4872197
4344999
17893456
17553536
4366595
8440523
4637184
11805185
5281824
16777762
19420234
16912771
1316935
4204553
561667
6361136
5771432
19482951
17563652
19157251
4411400
4463784
780
6803961
5506186
8721155
17319947
18743832
1839552
21078016
23594656
79144
12686888
14784576
17180684
8405012
8978438
17580250
21380458
270747
803344
4999788
9187875
1713123
8389928
18220442
21123204
196663
24134790
26935361
25202688
30994563
26289088
8146177
169106
9437274
6400216
2167114
6032902
13122185
8945746
268640
4233861
4297
22220868
1054100
19578929
17336905
9716786
17322256
19399681
2175057
17846793
7607556
805152
16868713
13388866
11209994
132758
10511874
9527364
2110669
5122561
17520449
17646758
24128064
17252405
4510085
5767176
30441556
2754360
2293778
25298992
25427996
12125764
9585416
19660928
1122346
482616
22104210
892966
6620040
213344
27918371
6917388
18877960
28328793
9504803
2211918
678203
7503877
19927348
16811024
4227609
16994304
1056841
13959720
3702785
10584080
9568872
19947364
1082420
428033
299169
12730880
3649554
27615490
25960488
31064120
17302050
8401593
559043
8914817
22161413
8467584
19104277
395394
15466523
29655185
5275946
3113386
17996512
24248452
26296960
555026
2312577
2359344
21006820
2634156
101700
22723328
22708354
19149959
10506304
42010
8685121
25231750
787056
18279680
8430592
56854
16911483
12780610
10494474
15012480
4329473
23478913
3160070
20974536
12592153
4720929
4336513
14156870
6867048
21017706
9609276
5660832
8402948
430091
22351010
5768226
11035525
6070280
12602240
22604896
6095153
246140
4686564
4844432
8638673
2195587
21236105
16852512
1313828
759617
30951481
2204260
5249129
13770753
151697
1067074
459160
5833376
25181204
18122786
3954144
15733898
20611625
294016
3492096
21777296
3154176
4244664
8970308
5016105
13344001
4458049
20972706
1720880
5937330
1069592
4338352
25724293
6369792
7644176
21568010
215104
18875432
28615200
4458770
4463232
623880
25165920
17042448
22942898
4833936
16811060
9988608
8685828
5791873
337637
8868482
25722885
12661252
6359043
17170616
21561376
4233298
6325376
22417408
2671648
17837704
12354688
4796481
17176418
2373260
1792
21532689
2405412
4751624
17171969
9720956
9864
737792
581780
31483537
9452628
63747
22127202
21253701
16909369
26217412
5784596
8421398
4671625
25171720
11610625
25432080
8398086
1229334
5324851
3275848
17962121
20383952
4522506
19398869
17728416
9847141
16854081
8915000
8650788
8860996
23330951
10952914
2425867
173610
167456
8531792
13806592
2249485
2146816
16921856
14311566
807000
434202
4598280
18923608
266512
4217856
19280010
16855348
4332052
1625352
8610080
133126
12196448
17383523
8618368
3424706
18625
5834278
2244804
6344450
66592
599304
196613
7899172
8390688
2103810
26003584
25174400
16795820
9462880
1186644
4852256
16914480
16847880
18367009
272140
656064
16801926
19240960
16968321
18562
10780962
21022976
17856546
8965236
10682375
4260139
4194718
1486755
6850634
609282
1622405
5259475
13500424
2200706
7946240
3055617
36160
462861
613
17631314
18560
22151637
25698480
2557256
16811092
4213128
8942105
10551880
268425
3150944
656900
20975626
27075176
8986668
16785878
19046216
26347201
18506048
4411552
528563
106785
5615744
6351647
6577158
10096848
9699876
983493
16777985
4243458
16908900
23333673
2513552
332160
12161536
1251560
2170914
1201732
5220484
17311017
1114533
275458
9601091
727299
8661140
2128452
5538170
4399936
2482368
1884708
16933177
1589760
14982168
16810320
14165033
8420163
4813447
1059345
17870100
11555339
19873922
18317496
5801732
12722275
2261030
3216412
29934081
6852816
25299801
1266241
3147780
355
7193
30419744
1132032
1249556
26263570
16848769
5281924
984776
311746
26249473
770260
3213456
1182083
20974849
5538753
3485704
4211816
11274022
4202545
22728864
265738
1995011
13505056
26773672
186128
16124074
8582434
4461732
22118978
13140272
13664648
1837192
14681128
20192386
17301889
27495464
8522286
6443137
270498
1310880
35329
17858688
1115140
802849
7438626
551092
10548228
1574657
2820213
19955844
17876070
17564041
19333581
8931860
7078786
4201280
4823552
6788888
10786
5254348
16777221
6292146
26762756
21012744
1085456
655655
121504
25395873
19006993
13392530
320768
4760104
23205898
16806992
1516064
13090881
21393440
19136776
42145
3609429
25209472
1885248
386344
11534868
14582272
21168445
34112
8528154
304144
17187360
9797780
26253477
17076227
5255686
13247360
2936886
17760268
2762370
26284108
25298066
17958921
12604946
9945376
1310756
22282627
5284917
173121
16865538
164352
25182528
18960920
12748050
13277504
46128
10567834
4988960
3240004
2197616
22184512
6349968
6481936
574136
4681764
27406
5578772
7602258
12894296
8487192
4851718
13540608
4857222
18059712
16833540
1216718
26231041
145921
6443200
2569
5227019
1082438
20103425
15539232
20157363
2443681
10655745
9442568
8388818
20980502
26226728
19957905
3092980
921605
4474900
3148172
4736784
6492251
7803045
21037202
8724760
11601616
24125569
2032400
10638473
4374808
270569
18221568
13632577
16785676
4296801
16880838
12625926
528438
16877312
12845088
656780
14946373
2294273
17925153
2294393
12607552
19095940
4475016
18874376
9720867
2298001
3548626
23200512
2113655
17142492
6829068
19719450
17224256
2396169
10948622
5505268
3298432
16934018
18877443
17172952
1351888
16784164
2343521
27852901
2114592
13127816
769
100688
29376560
17039952
66865
5186308
4460579
4280337
5280362
17002
12585092
7472736
3233280
5071062
4260176
25207828
16913697
4862340
6383881
3159725
14058568
10486048
14696836
4339240
15040521
17120
790807
8790082
13726368
1769730
1706452
8654400
21327894
10194986
11634834
9209096
13742099
25215154
20973186
1180429
1081479
8529
13019172
27707910
4420
270784
14189572
16783046
4211040
24118049
27485254
524744
2137119
17842581
41362
16982795
1084740
8663112
2191625
3145889
16930407
4063362
3510276
20121344
4304000
14680599
1624328
12585714
1116416
29716544
819970
1061545
31378020
5726484
4227132
6447649
8941160
16804107
1180050
21521192
31719456
4329728
17908288
2133416
7209585
583956
13251608
10946292
16784896
2400345
3510550
75617
32769024
473544
26692129
23464169
1057841
19345920
2330711
266259
1159301
3019009
29366832
19507785
18384780
5637312
806564
952410
1716472
304321
17158
3162121
32768066
14710838
3578497
9581057
6582410
34897
1052824
20643845
4310084
4264972
10372105
3163392
16909845
20983048
13848594
1147906
6623649
13289824
22561805
3311680
800845
8783160
16862474
6867972
27330121
208925
5061632
6424580
2900003
8422281
2102272
17441795
15466560
2643106
1310888
16785411
3596
176832
21285894
28108800
1116210
8978704
8691786
28584068
2603
307493
8927076
1065264
8595552
30491714
45319
4203795
29385033
16851104
2280257
1118479
8441152
2270228
2228484
788224
21514841
16790657
17956884
25246338
32079972
24535697
14687461
19041473
8683585
82464
21664001
27269200
13010182
8950536
23923712
27361933
6292614
2126218
17085704
13706481
19283971
59400
1089800
17826002
12063395
567712
7306
1139201
8389664
542882
18090256
27757710
4196363
19998052
9361668
279469
22116401
14533681
5457230
2720898
4195090
19546216
1083456
2690048
2162756
272029
11340
19120512
26349569
20972612
23429137
2162772
23880192
24667293
263607
23268352
4000588
3476800
26903158
311429
10501328
557378
18895921
11096320
12582912
230476
8937674
6308096
8990780
2164755
1512160
10623076
8815104
21375052
8591658
5783848
27279396
6029440
5612072
1713076
2656419
2295874
21410304
4739938
2107480
16812546
622608
189186
1050638
2300420
524945
4929
13185112
4441604
2789937
1540178
17137678
16917012
591882
8425523
19019400
166276
2196736
4470924
4292784
11604132
7405585
3720032
24930
6771074
2106046
3760128
8061635
1146904
12592516
1123721
332950
2291040
272
13134083
5768074
4759560
8632069
26289156
17479110
2109722
19677712
18908721
8398157
1132546
19137793
11251732
1313072
17057936
5772096
8432402
3302481
4718795
90640
1546
9475350
26280704
542725
270978
2134028
23075841
9470252
606490
2825492
4194610
17981700
32833
25529236
5442574
8126624
82536
4539525
22022171
135568
12726917
17105460
16777478
2228554
29376529
31535134
315911
54276
745902
21210588
21020224
1470572
13598880
26423856
2178
25182242
31571972
219293
2245632
16944178
4899345
1098385
8526096
25183723
17481955
21404931
4718602
6620443
17842434
17311938
5275726
3577476
9465888
16938704
4326961
888832
3304514
1670
23152135
5316898
17829898
3687585
4260150
467860
8992641
8978468
2379624
8536322
12626206
658696
32872
525602
25364322
1156232
148740
189780
311364
10518724
10568390
2640410
544793
5772288
4332420
15237248
17325329
10518542
2436356
3508378
6889493
6328839
6553667
1118733
16829472
16859393
1137763
110084
17433110
1721016
18620564
17948801
656531
8554516
4223029
4730928
4720708
21063856
29536804
2163280
2195713
1816
491537
9637538
8430019
2385670
8724551
6672165
13173355
19424064
70913
5259270
16811921
6453289
9437888
17076983
6399905
594377
25600016
2752516
3180805
23855368
8565385
25563909
15352368
13632306
9477186
16842914
3199034
327753
265242
27353097
10745376
8414466
566684
12880176
6310441
10092557
4128
23167040
19071490
21577862
149017
629316
22207285
5282312
25270338
133153
3792980
2199688
18719240
25166921
9702416
2949256
3326468
9570346
10654467
13001462
17666368
2101122
6296737
3446048
16811156
6815888
6815745
12828740
9057305
23087008
8390720
4425860
270403
4628544
25201472
3671122
14190436
9047296
3146389
682145
1187929
17342640
17195048
8554048
27263496
2637842
2366216
23611680
397861
6316112
11611427
10584243
9145384
459595
18630852
14840873
4735891
3219997
82064
1775744
655428
470055
2762880
17563986
17040714
10207786
630018
155779
1843271
1127170
2392242
848013
1048704
12847382
29491812
4194512
5255427
6400009
2680178
26386435
4354312
12881038
854144
16320007
4674560
295475
2630912
4203068
4467876
2363410
2097164
12649554
20977832
13205792
3240342
3673115
17158496
11571411
557912
21627606
31002645
530690
17367300
1087632
4204130
31742341
1572864
20577
26024
27068161
397836
16818224
10504405
16948225
1204224
5945369
11569534
7800096
2853619
26015810
22878744
41108
146584
17107542
7340040
11569456
27526660
4711685
5179920
9472194
344598
17580232
3199440
23093900
17059842
7229514
420504
10624180
8791250
29963780
3414418
17574660
17416464
4325393
17434767
659512
8390158
1216044
19667778
264325
6464513
16867392
25266370
8667464
14746764
10494657
132565
5385539
6029323
5245040
1836364
19309098
7438384
1912898
15730953
2188086
9242624
1091714
5354244
917876
6470
12017851
18030865
12059426
5421138
21292
18942469
2695730
19792136
19142784
31227992
7340557
29884440
295970
2622656
1087268
1319968
1086578
4539176
13779985
395520
22126612
5817604
3342
10092738
11552004
12739920
9456140
5578777
12910634
10544385
9476424
12619904
10551379
559500
8287
3506449
9831443
15369
5243600
11565218
801636
23732289
8982016
20840961
1861896
4744921
6533121
22036869
2097443
8471814
4862536
23070914
22282530
6441046
20451560
4861956
22023712
263878
17401345
10567718
9674
8326160
5407008
9045335
2621979
10060114
7638304
12607752
71684
25219632
926680
1252164
419969
17314073
18841680
25691650
19730136
15074848
5825536
2176076
17314214
29556740
5523494
6821106
10863752
26356032
33292386
10593040
16980072
4227332
2408465
8456912
176680
14685720
531773
2965572
8667185
26346183
13117217
4233217
23599144
9194032
5668864
26333440
5489665
10504206
2139298
10766464
18301074
8407493
12853319
4686117
354443
14228505
410752
535568
11571009
4330265
2588
9798929
19139466
4882946
12730409
24185066
26255554
28248329
9289740
31506480
2688128
5246594
5292081
22058616
14863365
2432900
3489813
11543010
468099
6428232
9060888
8487360
3605013
2458120
987144
1129522
21107905
2559538
11862532
23136051
1315842
20709474
2150622
1180169
6657028
8726946
524880
452163
25333888
2183680
13191626
53953
17572292
2883781
12599480
361256
393298
33668
10692770
492590
67212
3678981
22569249
30971009
19793088
4205681
25453632
8577960
8400389
12910950
131362
1090582
4261008
9476229
9241762
8422688
26299714
4784178
8523280
408804
14748295
22186660
23101457
13373985
8823174
3149856
22156296
6963264
15208017
524295
25184001
45128
5907872
16400640
18137152
21169153
2296594
4293120
4724865
25331584
22093840
17064716
17863242
9822864
8560906
17502786
243874
29622529
11405607
25478240
696385
3287045
12715724
16842800
563236
672026
1321092
17089106
20126784
1246160
12698424
2886978
6299400
6296884
10492164
10375271
22392867
25707968
15466712
3801810
1385993
3410945
19177495
9699478
13893644
5153
3477528
16784944
19595905
4390998
17765537
4263202
6821204
1868564
2428608
3843080
1057393
1388832
26396
19559201
344344
21121226
17172521
6443052
2131459
24151048
2655042
8520057
4208668
8397200
3152550
4481094
943638
7079172
16792625
6709396
10768668
10584
8390467
8884389
1585706
9568449
8611665
16257680
13647908
6358424
29947426
5512232
26235076
9994534
10626057
8772176
2433328
2819072
17845568
25702676
14157386
5081105
1123421
1048964
29364320
1835009
50215
6998792
526234
8519777
157988
12605457
69825
557068
12964
12850080
1070096
11739302
8422984
921392
73873
5247270
18186274
2846778
21054468
16779590
4984833
17982002
21256864
74164
18882577
23091393
2532353
16967763
656572
20645029
16913194
10880518
9578048
21182476
12593172
16974881
19203105
6570496
22023261
2633898
1183584
25167636
21040160
810144
6430976
8751875
18153482
24664
11681940
24154112
32735240
1657100
2557952
28378394
76225
2230317
27803921
598093
2695202
2279592
27361296
25494018
4465074
8473232
86025
26221984
8857604
8917568
8601668
6892068
23068769
4487340
9222468
8459035
7016705
9587725
10588566
3146608
18146466
9476561
26763269
21012636
7094697
9704648
2165576
32116739
15082260
27510794
475157
8525827
11543320
2646532
2124312
4261125
25904137
184434
12126592
245892
12599317
937092
21193829
131082
19487232
10584256
22316568
4380038
8940
4662089
2311815
7351056
1189632
17420560
4719136
13701172
15339080
17900555
17453696
1806384
25428018
25261066
8590865
1454376
27799592
13637776
2343072
29655840
862801
29720704
9619456
1462434
22298632
631272
23089161
7614470
21008708
20989509
3151749
5259300
16811490
9441984
7353472
17383493
5180546
1626129
14041486
25174032
311425
1885440
560
2169888
8650802
18375432
17580631
301960
25231511
14946852
1050434
19005640
1619627
18921994
8544268
4196736
10527303
10635136
16908592
8945802
8656128
33032376
5324819
13378100
18900160
4972969
21391008
25313920
20203072
560462
2644032
19447927
25641314
786451
17795756
18589490
12701058
9814059
13052024
397632
4458761
9634260
397320
2834722
790786
164098
688162
17694785
2303626
3625228
16997913
10636480
82048
23102092
1668
13652104
17142151
10524850
21013537
25166228
10486032
7387745
1098216
34259
18369065
17302048
13095312
5317056
19407572
12077345
11134240
17440812
8652961
25477577
1452049
19007496
17064100
20508825
4718849
17047691
14731410
151568
1450385
2244998
22594584
19401226
12984448
5128502
1222272
6295586
1667584
1419529
23303692
11416387
16777764
25462018
22200576
10623697
666631
565776
16789581
24379457
21234102
17084897
19008020
526884
20058152
469034
9972002
18030608
12713998
362953
17117890
8915043
8522792
12584993
4800626
5245377
565279
4811080
5021828
9830537
6295568
11586904
1402001
200768
469379
10488864
1779841
17576704
672272
9441348
4751474
397700
25958485
9990184
9776474
2425257
20054792
4461334
50437
9209742
17466368
1052800
26249268
12584264
277152
2301952
9245312
17236069
27822664
26221346
17376136
815176
3415200
8394133
2630215
2701456
2777619
4205573
8978433
525337
8651132
2247553
2818372
4555812
13386133
17173140
1443338
6328321
4194576
17934982
18190344
19993920
13701392
10010730
19435694
12648974
6733900
19415044
3019777
141058
3670440
6319106
8454315
8806950
25341970
12655112
4468776
443458
2990690
396050
271012
6050880
3228816
86300
13005122
9240584
23664778
4122
25702406
14837892
29887011
6587724
16816529
8520448
21172992
26337824
51217
22100064
27596850
9438472
16802688
16964360
3041369
524805
367618
16277520
16779414
11043340
29664321
1052896
19403136
287233
5827282
23120384
1575684
9232464
16880208
6424828
18447
3264610
362762
6429698
4792618
8171528
21262337
9462004
19929488
4727336
344194
18055460
28396581
5344529
267045
2363682
2120201
83602
567352
9003352
17399814
15210497
526368
29922320
385414
13435965
15487488
14747721
5261696
1066672
8398850
2630736
2786049
27594816
11803076
6361100
25039889
8396962
2111570
4325616
152707
17189163
4811739
8457232
15196293
10028051
10645664
10224784
6840842
14819922
8973314
24526993
10022948
25273184
3284998
23601664
12747269
26222593
25444433
13303936
9055492
1081862
394944
7481408
6823949
4430416
21038464
551942
9980176
337477
918790
344225
147840
3187712
12849262
1837073
689638
8402944
4881
1229540
5624001
13238880
1386630
9650702
2622610
167840
4457523
330757
557060
16783810
13451396
12073068
2102680
15811857
4397592
304371
4460994
49777
1400848
21529042
26132544
12866146
21584134
49665
154641
5279468
14350
17090597
4268320
44544
71983
1065281
6362138
18506023
17184837
24195392
4237834
21258496
4490404
17391713
534576
444160
317124
18756612
1425742
7037976
7480788
2099210
2154772
8648747
16860032
615042
21696580
2361621
4206868
9218636
5283891
29366978
17336708
556033
21567753
12617820
20988513
22041234
27550056
594945
4827217
14976000
25431208
29888564
13108367
4457636
4860520
23516772
16788496
11346104
25494856
5313536
360834
20996097
17780849
5505157
107025
1319280
788986
13652151
19079173
508313
1392804
4822529
16842761
9961494
27410468
1065681
20973232
297984
1563337
15108352
2232204
4554753
8394644
299521
3121413
262244
18364738
1090880
8405069
12796425
10500268
11543681
25297280
1097845
1376514
2171150
1605926
2598419
9568817
1061248
123020
131076
29511188
22589512
8391057
13008904
1202196
19288324
464006
1324
22153228
533027
27533575
558614
12347202
12690064
17083409
4460659
17367168
6326326
9961519
26548528
25836584
87108
13271066
2318364
9729
6362768
22044990
21264388
84040
5244641
4202532
25889553
20058153
19010
2784546
2906116
278684
3810304
12648552
9896284
17958050
29427504
6489640
26085506
26215552
12091683
16777741
4858012
27378928
1706240
17043462
1323144
26361898
6294023
17324043
4767818
9441921
311297
674372
2102421
8668930
27029506
917576
4740160
4265531
16824449
17518823
17042189
30672321
17043688
670856
8470706
5013625
1070237
70512
3014688
9175597
4266128
9035776
23593261
4174080
11744888
103700
9146401
1258625
337994
1419356
25330242
1579024
4458882
8601999
420871
20523036
2768984
21094408
18875012
17051796
6357377
17580178
1966150
30542400
8724512
4740496
21582120
4670090
2777149
8430601
1098776
13762576
5378080
6399538
1196489
2206209
12863536
17971217
215349
29500224
25432544
17435536
4195385
25642568
18745344
4262218
12549
22046790
1068105
1671306
20972718
8389280
2167506
92682
21375881
295692
12718092
12583220
17957506
16781324
2636358
16793624
6291617
16818304
20187141
7251009
394385
8817761
23603744
8405912
22110297
1185571
4256896
724996
28491824
4244154
10242080
6168604
3146828
2720833
25470996
13601798
434412
10520193
4655110
22585364
8956938
20186624
27529313
2130266
8656642
8496012
622625
10568726
10240128
17900706
19144212
16911876
11927956
3539020
8389256
5246978
4472082
2400768
6546953
9711649
4202601
10286
9191483
6390882
18885772
10520593
1839752
9443620
12485633
10539400
26232956
5439656
9307136
131776
17205446
17080326
9504676
8668291
24294160
317480
16826392
1198113
20449321
29446281
74969
19013668
31552658
17323041
12362244
5259416
1806368
13244426
1071829
2361864
4211248
18364496
9998020
9145476
19669764
17625504
4431888
28117104
9841416
404236
17967033
16912534
11553155
21552218
8398848
6948384
9219172
8917265
17354754
29888530
1464355
8401715
3162204
20009988
15814701
9977984
234683
630938
3080536
58232
3409032
2450432
17828615
3432466
16793752
54576
29426756
18945280
20300801
5522240
77060
12642569
21093449
31745155
7275532
12689550
25280516
8136456
8557124
17531043
2616322
9454992
26759972
12702816
30042144
6816864
17056197
23527616
8970
4736481
287329
21266822
8389124
264332
8699925
1663203
9462022
25691136
4498210
393323
18874602
4204578
14460933
25176392
12969344
19210386
12752064
17318428
1327171
22331651
292069
12759328
13382
11334400
19334624
17829888
532612
1220677
19677338
1050901
274435
21570214
13572096
4270404
19432964
21156359
18464932
29462537
434257
29581834
2400997
17439256
16778049
27302403
2155008
2359941
11190272
27267492
6325267
4864018
17121437
8392770
11379206
19669376
18617668
9634820
1417795
2199568
19160722
1206276
5243969
8833313
4202068
36060
12042528
6435909
17645575
5505332
133189
1053076
4718848
1577024
1712824
459698
5292306
4908034
199334
17242368
20987908
5047938
1059978
1048653
1188296
19399733
28840269
1065714
1069239
1198101
4655239
25212160
508057
1048736
16785696
20636768
1576449
10693714
4000840
26247364
2098347
9636880
25231542
4362765
1771552
9536009
6762536
6942721
10836768
9634364
10530479
17172554
27282057
7477289
11026480
7341378
8405848
18154531
2256260
16802201
17848652
8462868
29138952
2261506
1059944
5313217
8520513
12754961
19014312
27009035
4403788
8421408
98380
262213
1845126
25434628
18616853
9967664
1131336
1149344
3283591
33162018
21237259
1671554
23355400
356417
7110928
9969666
22282850
13959322
29720672
607186
31557659
19139398
8529442
4194565
11535143
1140896
1847473
16908698
4215081
20973812
8456776
18490425
8521956
8485360
19338
26743553
2224652
26744838
29690224
17400353
19941668
13304424
21811270
8487092
29704328
12586672
4208684
19280129
17859341
922025
25789698
11342496
16843805
8430100
21510148
311459
11767896
4227138
116948
276608
1474569
17639684
7330
4528428
15614080
20975706
327971
4981584
3353904
30581169
134232
18874382
21790738
14954536
1444484
2637976
8563842
12611587
5054602
3223561
14813187
8950016
2135538
22417968
26378496
16392448
4616200
14976036
1843336
12589097
168776
27656194
12591266
16992940
10445953
24796172
17195084
16787493
10485790
4722838
9250304
492161
3895339
3247418
25358610
16820247
4198753
5040
22512264
4850642
2109500
1318148
186498
10654243
26298944
25390096
21184067
10763329
4239496
19646632
10097412
26519586
23070004
3146848
10485894
11677328
18907697
279579
17047880
17285249
35342
779008
5648259
20447299
279616
639744
20717840
12673077
17769730
1224076
10982000
7536678
2228448
29466630
18879234
2632720
3805492
10524356
2757013
6595380
148032
13110406
8470796
1082130
1712158
4335392
17705516
8656066
29623136
416
18941702
27889736
74484
3670064
16823618
2129931
18876004
23076896
21118993
9980929
684068
17989952
17317965
9568400
4228625
14725760
831562
4411992
18874635
9773066
368737
4210690
21252114
57345
299363
141362
8556992
890112
16970
19665536
25169988
200864
5384337
28115024
66468
12911136
275979
13959296
10593312
8405280
4220938
9543700
1066052
17040926
16799520
3408009
4294019
8819106
26673664
139681
14000
16869378
5767560
16926730
5705883
5534240
17043480
9704576
1082635
1082816
9717025
23500800
524393
9700947
1575698
8458857
29954048
1459202
17844225
5591116
1685824
6817344
84035
2495629
21768233
287284
21713040
315460
577611
5300482
598160
9970082
4359826
20971571
26477702
4360674
12129284
12650544
16794296
26247235
17829892
789669
20464128
25792682
95793
12590210
4444694
3181580
4338001
16795680
25322249
5539032
6823943
16875586
4821516
811288
23040
133389
20971974
16973868
5802012
4336663
86166
9520773
22229027
12462145
25191032
1615924
9044035
17899596
4217420
25495296
1095808
13146256
9879873
27764
3088
7356937
18874883
1392714
11731136
3284352
51984
4776129
8410979
2224440
5244290
2965772
8523922
4792326
11289728
21071393
4280420
8953860
6815747
22356355
87606
31769147
7365475
4725506
15385208
20494217
616520
19161272
17830274
4474904
21497378
20190228
528776
26309648
11290498
24297490
10749976
1196295
1180225
11583650
2148361
17736209
968480
9459790
1843232
2163712
25495047
12605704
1316865
25169924
21024777
17436354
17301605
18353496
19197986
4752644
4161
17400134
13639729
608402
13673514
4949253
184904
5289011
13763472
16333462
2371602
16777568
21663812
6891545
1052115
16797960
27839676
9240974
13894160
2240805
14491920
20205828
10667016
27018450
3424749
22021146
287238
10502727
15806736
176387
26365080
17420482
153185
2105608
4221457
1311008
4325473
14429721
12591904
17392656
16388496
8499712
3382276
263685
108822
13602
18744144
4317744
22637121
6315040
8397889
801922
753824
17303114
1593360
1453056
25428546
18778338
6332808
16957998
13634704
25165883
17040688
623702
14434882
14765106
6359140
14050305
1605217
2493443
909331
14033984
8849508
16777226
10541586
9968448
19415064
9245987
854279
5014531
17044294
21169771
1050646
29524528
624648
8704257
25311256
17318229
4281539
6123544
8719377
8604736
11832834
5167624
17309805
4522818
3309633
10768906
2272288
183313
1900586
2262486
13064
164001
25189122
1381520
1086144
12583040
2611456
8912
8685984
6952019
11209280
4882951
8470688
13910028
20276746
8651370
6096011
4993146
8397066
19938200
6455824
17472
12846152
2621953
20205596
13680716
789508
32082948
7343681
17303488
2102328
4379265
13287429
10977282
8718594
6422537
2100535
1321120
21111316
17355012
8546320
6187539
18637408
30540473
628737
20976850
12601345
12804486
13110176
23630112
6326552
13808432
18277424
23691376
19925793
19042466
25305160
23331881
44172
21217394
2903056
4786218
525356
2240525
4917129
21106200
12081482
5124224
20077702
350248
4306193
2130050
4207169
29911088
8667528
9475108
470024
266544
8595486
16799105
1295876
26214748
10486502
6393122
33540
4477316
4468802
12590480
6889680
12600132
16859818
3540580
4198748
19010578
6957219
25274440
2647683
23697516
30691908
5242896
2992775
18106372
733972
8226898
29449218
853590
116960
593923
2167324
262370
4220729
2863233
9480364
32772118
16885126
8594124
310
13930772
1270788
10623236
21043264
6422988
66739
17401232
2097544
17450064
2369826
22070318
10946656
8806738
13664296
14749700
6873292
25180162
14058593
301329
6571136
4456717
6127656
6296064
18370948
738011
2883592
8395525
27394194
1642720
16864392
18350096
18949912
1195268
12746773
25608
25448516
12714284
18890776
9120320
1107652
4411409
9050113
13017668
10502181
4270148
3443780
9471048
23134209
532744
17367235
8423688
4326794
6426781
1525392
12785668
5391376
6559489
7058
16829441
1581185
4941315
10486152
2115797
23138881
4826625
30539816
28314240
788512
1869837
13816577
18614294
9097259
8716548
21041187
45088
8946503
22476544
12588800
3211394
7360649
8674306
3686410
13109773
3279088
2375813
3670862
16866564
2244676
8409354
2761752
8786124
4853346
4719616
21104968
23434369
529282
1643224
550018
16910022
8770
8915973
13335300
796700
21144576
6045985
2268160
1140032
23478278
10713472
18891849
14701442
6841232
1413258
6580297
9306145
19202052
8733096
6370048
16916489
18877453
714883
6565892
4587554
9625875
31887362
3346
7741442
18366656
1064966
6660389
550144
9241876
538636
1376704
25635
573698
18113088
3150373
2247081
18453014
1091584
26239280
15734810
1083544
8786962
19406176
17039630
5377288
1725189
9445425
25231880
6820132
12870721
18909696
1336521
9483536
131864
16984896
98960
42020
2681418
9185408
29419781
11174544
919201
4542498
19382336
26790016
4263234
4984913
19596360
19400384
6423808
1769501
11012384
4596624
88534
25631746
16843944
5051554
2757532
8658960
819200
18971969
7669002
23075104
4244768
12288258
24406157
2182594
29545568
8651696
1058056
25168290
21533188
10782748
672086
13765888
17138732
5062656
23333698
2103625
10636565
12669185
17839254
2753280
6357069
214662
14826546
18761299
1196192
28442624
2116492
20004896
9725990
8450449
29434121
6377489
2099270
18351152
8749965
3148504
2691714
7079482
594304
558244
17518657
2163364
5812354
25217792
6586536
17150176
2642274
27109640
27328617
9342273
23203961
10095616
7164215
26038410
21088516
633345
4767872
11273312
8849447
5266444
25305124
16926786
16979010
540704
18228290
11538592
4237573
524345
18198544
26516480
32008544
23636232
9540098
5046482
524936
27863298
31754626
5128256
7356451
2852869
9773094
8487304
28094784
17375532
18900805
8522736
6997408
34447
12588072
4227098
19468292
12736960
1068167
21233936
16778593
2203651
163873
17991244
4481593
22028493
2097441
512001
284945
7605764
17388545
3025094
32653451
19409952
114866
12996736
2147848
55304
14746769
6565937
29363936
25727235
9601024
98496
645889
42264
18547089
2623280
25362465
12694282
25313464
41873
18072066
21250320
2187296
16797749
4399304
299784
18923585
337921
21006363
140464
14886438
3211312
2623560
31457446
2565130
4429400
10920176
4719617
16794121
4464640
262202
29376775
69894
1599694
4194840
18893313
8532040
17896584
416736
19731736
2100536
27591760
345345
9049089
3687786
2497096
2132554
2124290
10862600
17061386
1081804
2816172
132238
1048640
975116
28187168
21022280
540725
28000302
8410
1859584
20514340
17373092
1355930
346376
132694
7147520
25616541
19155992
5508032
19937411
6701565
12638484
83081
65552
8945858
4194379
22202928
10690578
6324705
21564
2293780
19401329
17050785
1184834
25233618
28432389
26919
16797796
21111168
8397648
2825730
1771787
16842976
22151623
7340056
18645400
1640960
1053968
15213120
23339180
113
6459446
1668240
4204384
29696536
10504330
17318950
10895776
10125512
17367388
35554
21694496
543028
10494988
8421957
16658584
4458632
5358723
6627330
12896544
20447349
4757778
7344692
1050825
22025872
6229
2139669
3186690
2732868
262151
3149827
2440490
25559237
8396291
5244148
21778604
4334284
1455912
3309
1356545
27809187
18880440
16783509
20546
1118434
2101856
8388866
4345992
16777251
3541792
6758688
16982849
8853120
2623568
1454474
4735840
16855061
2112005
25250076
2890180
16798801
15761705
10093817
22058002
1092884
20458193
4765746
694721
25201868
1122755
532520
20497408
10575946
2230533
21041685
6365588
17704854
205464
720896
22544641
6567985
26222936
9996512
11868292
24223808
954534
21826288
22164
16793600
27379457
18942722
14778372
283532
8824460
24140388
17462276
264454
16910938
28837
4493509
27310244
16830469
20209680
1130760
328015
11603712
9015498
8817798
21039312
30674944
4988941
399913
1704965
2237061
149976
29444360
25830728
18874449
17047840
18770119
10047495
9080649
2138376
23122088
9437312
4755458
5540291
935200
25196681
4736642
8557186
1847552
2384994
4498961
11542656
17334306
10588172
6600924
1182464
4227475
395038
403094
4221700
8544256
1591384
2228627
4457205
11436216
19286212
5263385
17371755
25890821
4234531
12585072
2228580
4761216
5823616
21235720
569360
24384786
2263106
4539620
8802816
23345925
6588932
10485835
10489152
4478086
629764
3293569
17924616
269584
26350352
98818
2132645
17303968
700417
55842
17092096
26279961
5374216
2101288
7415168
9647269
4719675
95105
22089736
3416978
430572
1180305
2298522
2267136
4200614
3539988
18024480
18908682
16811608
21659909
1249644
3311753
2169154
8655200
9044185
18618048
8413592
10618887
8563712
2383424
20972878
2237218
23172908
10552464
22348449
307464
312722
8561748
20188928
288834
26749840
24379656
253953
21235992
9578690
18874406
4474880
25043017
2807808
679984
18252034
67784
1437828
20222632
272674
559940
23118624
5374400
18886145
852260
24908080
32280582
19005768
17040074
853005
820804
45282
1568768
18112776
7365416
21170322
17303592
20971521
8687740
19991323
13779403
2679888
34368
25732137
9439424
19661092
10182736
2098210
16990237
15787416
19042884
19040848
23603504
18220604
9243905
8921299
16335201
9966689
57368
25182648
9707713
5226755
18472977
6440099
13049889
8295936
4736337
360449
16992774
20156947
8665729
22037640
4196004
3162689
213432
24194564
10635280
10559746
1076373
2315444
8577042
1181722
17588545
27660288
4220515
16799552
18912106
25305155
8733058
885279
4722976
1586595
17065988
17606064
299344
3216205
10847064
17571840
3151176
25318472
21222506
9225542
1199680
4329489
399761
153720
1157392
25177732
8848532
19403820
21250992
21027860
944132
1654841
16790587
8800552
3191047
9459312
27001092
1081418
2810498
30409240
18236165
6530
22874880
25428224
1049776
16816322
8495106
1870407
37137
200786
917804
1122828
1844544
16814090
1612813
24281172
12853569
1067378
3802304
2301253
16777842
15605768
1736993
13303956
17831680
10569792
24680448
19142168
6622464
11576778
21219484
580117
6325572
16777370
71278
567825
27952238
27853666
3686486
7882952
7367574
4494657
5050504
1715714
23068931
27305482
11666501
6819846
3823840
25338003
4430850
4133904
2156561
27530880
2269252
21496576
4723494
6819972
5358208
1382736
16943171
2224128
28841028
82008
29901960
2234020
5770375
540785
28474400
16797914
21008385
269986
25239616
103760
1703986
20122152
2752738
153104
139380
9071041
2179650
5768195
5129540
2360643
222305
12650880
13416449
1485444
3510340
13124514
14688264
11018857
8437888
13926530
4305228
8523289
11014656
149764
8826970
35622
3981312
4398081
8604032
983142
29893504
16893296
18350272
1770250
16795713
8650898
2769555
9732873
8917042
2101764
8446976
17221959
2646672
8971560
753680
2097186
25199953
8978509
23069874
25335514
18010113
9048066
27414020
8930356
8553786
21430912
14861731
16777908
4420169
9830510
9470073
29487632
27116050
16916496
3442985
156827
27989025
12588183
8472768
15008316
17126428
12779528
22284612
1884752
1595601
4850177
12894209
1181814
22832448
8392938
8390596
23806
25569491
28721984
4214336
19964178
7477264
7346210
2117678
20147050
19565072
272594
28379664
22036617
8454401
787210
13722112
16880645
1225232
9607208
2774024
27525649
416099
9585699
3342436
14727300
16728132
8409105
17924724
2772994
25895049
5427458
19012112
532800
2506922
28901634
4588776
17460234
3475043
1179649
3180737
25395352
443909
73858
790728
10578496
21513419
147843
1714308
10358944
2098504
7603332
16879908
10946
16822528
131152
33545
1761283
566820
1572911
2490997
22037558
22044735
26147842
1181748
21900356
4292610
26225552
12863850
1245194
2794568
3360768
12863504
35988
17048848
3409428
13109452
4227620
291920
16845606
1100928
19420364
607386
164002
8570888
25821988
25176134
19925301
4327938
9803780
6514192
15728820
535361
557720
3323409
27275309
7282752
14821952
13177984
559111
8661003
11800972
9515296
289796
5314850
8425574
9192384
9005200
18483524
2131622
5292064
8929732
10774788
4722773
3441680
282948
9709952
17858928
17379844
3276865
5423907
950404
609352
9735182
9536768
5907618
622875
8792594
9547808
15279157
1078293
35060
12584972
600090
1405610
1495193
16801906
2622481
17315504
13716501
1852686
25379912
31510661
4276253
263048
19185665
1843272
11288642
14841368
8913920
22152164
1229204
563758
4718689
9474063
2300450
9496675
83456
19523
12945555
1377030
5243044
20976156
4310307
127600
20402560
4245529
677922
107012
6887
29434112
1056832
14954739
4525632
267542
708738
13159524
25701400
8553032
1413664
20203842
9072736
4262352
16928769
17565954
17990862
10747962
4834436
2214178
8418321
2142340
4458056
536836
31547408
787478
14968893
10904
9848736
22757400
4800532
16912656
163866
23107461
1601264
9443868
31736401
73768
21307426
1083241
5899328
25241872
1318036
1884524
1044
1204544
17842490
2118816
20120484
17113108
25175072
1096716
16796000
164954
17834032
10802832
1194470
393234
2115720
8915845
2140418
890115
7474306
1050240
789584
25968928
17314950
15827712
6148737
6300256
2107537
9751379
2113544
2212929
26220586
11272244
18893928
151969
2490907
4465762
3149063
4776978
8674112
8687104
11565057
22513676
6077457
21377377
15731236
1098450
22890528
4721439
6299981
6197249
16861045
13189636
2639052
8652291
19544208
18887700
20980929
16780288
9061440
12870724
2625152
4211254
5768352
733713
2375874
20185864
495712
737633
115088
25991248
21717257
3166864
5321506
16862222
1576980
20056896
2913801
8827
69672
175360
12885712
9585667
806978
8540544
7865538
4194722
4981912
16782536
13631488
9570405
19529792
25837713
25725573
18091397
17534496
4726789
20191233
10256456
2106120
21188
3697001
19399233
21759948
8529444
2229320
17870995
28770755
2206636
7048
2232584
18454614
10539332
39177
9832516
135239
2267460
428320
1561352
29413420
672800
14682628
17371372
17884186
8672672
29684514
19072805
4236
13637816
15132672
11310469
413856
4377410
26575528
55350
10510412
8571138
222260
23236624
18287972
19398922
1295425
5314004
5281332
559140
8612354
9650189
9471105
5424640
78422
10564194
19481
17076487
73732
22151702
269082
5277824
542630
134218
14712952
9047082
8487529
820998
2582786
583478
3158353
5402760
21020833
10978324
19136612
5032322
25231491
4465216
17326466
17436161
16785990
26280069
21144578
8979491
25172648
31494306
2921345
871466
5439648
27791777
2666693
23267074
16837766
727306
13634252
9060630
8409348
3342408
15248534
19432257
18936192
1705128
6752260
6291888
4469122
22204929
13345441
20078688
9962536
5145612
10006790
753826
17056916
6817544
19024402
549922
2438304
3145741
5244935
8620144
17138097
25231474
25207837
20977768
11075848
4753793
18964565
3219456
1081450
1413122
30633988
6570572
17425
16790274
25403680
4280876
8597016
1455292
20792524
11309065
787489
10895378
26739205
590216
762151
66574
17309715
20996424
14843978
558336
1050657
524334
18678074
2099540
9865250
3223872
1968808
1835394
3212745
21254688
18264323
10750224
29368528
2253828
12702222
105984
3672580
4227950
12617795
25275553
2359738
22036690
25436928
117426
1312804
73986
2895942
753664
17504298
5636225
4006473
9306369
6328912
18096266
1229584
5308928
632862
19274323
2556592
809542
6439757
6687744
24133855
4285959
29419568
31114384
9966216
1604
12667138
4887764
8393782
5977130
25432452
29477105
6447312
673795
1773660
17220011
13189120
1262656
24137216
14224276
131079
19082630
7512069
18943536
28084490
1054211
10560533
8427077
9306368
102955
25638
623378
5707904
16855556
24660501
7855232
22046225
1755284
7367392
1146965
8420376
25344
11081740
28333324
2097541
21037700
4203352
14691080
352516
12994708
16811851
19794194
4575316
2295680
207617
23662666
23094276
27788288
6972416
10122
23636802
16845568
27299849
7340043
2298000
4743268
1132600
6403
13632888
8719418
10854400
16319815
20832
7472513
1269890
3344896
15014088
6840460
25313568
1319300
26972454
22018
2630152
8395264
17176069
235524
21045522
21103744
13258760
5506283
18616844
16908548
10584465
5058887
14851140
20983431
30154819
1255938
10529
1574120
8687802
8536194
8855587
5049611
10027049
19480658
13815136
533826
4604192
30478432
12132681
2770226
8927852
25178504
6062156
300448
4397126
11031766
17699540
6426692
9258185
5906829
164680
25232464
25170146
17867906
2672388
10953834
16853059
1354256
156164
9196551
25705524
2098068
4767750
14170112
16058712
4501517
14099603
1052936
29440080
22034723
21118992
25715201
921640
3185303
23597331
12739588
1089696
31720452
3567616
11571712
5544108
32597064
16916
23478560
22561808
19993754
9066628
4725792
22056985
1223713
18255936
16811577
6291522
9193605
20230384
999918
9508957
14057605
3297228
24184924
13141008
1167457
8454792
21525512
2114628
24412176
1392770
272563
332305
2131238
155143
26280577
16912393
17519392
3195395
801096
17369129
853045
17086648
11616522
16900161
13643820
143531
8432322
16992292
17958401
20987977
17960972
3457554
336526
16814108
1144920
11010488
2322
18415649
2099393
22545984
5261337
6492486
12653217
8459556
11274946
644104
8634627
4788508
21651718
29426371
279588
10780678
285476
2200582
341002
526430
1852417
9458184
13125857
6457672
10659845
8736770
25166386
3015842
9145864
14684946
12824
6158
74249
535784
16925002
21108102
538935
8978840
352260
4358148
1050888
2654244
5821096
8558944
577538
25740418
1559046
22022544
5638660
19404864
5249220
201760
29383685
40064
4395266
196611
329760
21016652
19558696
11618601
20578626
2179392
13484560
12586757
3146851
17224328
722557
22856
9992704
29925552
1143241
10654978
21281664
2236768
2239340
25168233
451594
21102856
19219224
5048338
431408
21037120
21103618
847130
8941700
4921505
16856138
12583592
30605569
5374304
26542424
2217232
16787796
4227204
1779866
734912
7374994
8933713
12657281
24389648
10622978
5308472
9503253
5263616
3627490
11010820
20981170
887619
25519403
4194856
8683561
2457600
2638304
25832519
10815521
458764
11575408
2372096
4588320
17303984
25708545
1313334
27279402
545036
21274630
1687657
1480972
284738
1376856
21762592
1311304
6824467
19926128
4786818
21026051
11796757
4341254
9569135
2097337
10531841
2670721
12615304
5645
19469729
20973745
25301514
3227651
25734241
1081349
3282945
529730
7045266
868514
1235376
8562925
330528
10092568
25167908
17957956
28369094
1574500
565523
8783960
615576
21333038
16884032
9536130
584976
6480448
18885253
15811728
1581314
17340753
1051036
7864361
6324486
4796978
4263368
3539726
22403072
7905280
17894608
11545188
1370241
2144006
2622884
16885264
25170210
9449481
21250112
3229775
4690754
17477900
16951618
840740
27419152
9503498
1165075
656
211072
547124
29760032
25313284
2699328
3746180
1311466
11718884
6457378
11157545
3494146
10498066
1709144
28336464
22030976
1081988
524620
21240905
21243200
8528180
22020674
4786336
14240260
17131053
35332
4526184
122881
4194440
11166019
8040587
542860
18499173
12608000
18875560
469265
18621466
9046694
31787008
25362568
375424
30550088
17367808
8994853
334129
3690184
23079940
1108611
10667415
18878473
17304685
3672100
13303908
1058572
537682
8527874
7078978
7342233
590062
17121409
7471137
5907458
65607
12681280
17163395
26220624
209153
274
23528576
3314770
15338560
10816551
197029
18941016
591913
13645312
9833240
661002
5783554
1082384
26743633
30409928
18946816
24117261
4204857
17121296
21055490
19149320
10504216
8692884
25856320
10674310
6613394
18681859
4464664
16826368
12652064
1179778
10635217
1120344
16810001
9585160
1310797
9574960
3099656
2855656
153857
5249408
17345544
2165920
18941991
12594561
1574417
25847344
2140178
10487188
4786544
4255888
25207458
6555700
27402754
27570308
2195489
8389770
31720000
30736902
1065377
4248576
3280986
5252617
6887520
21495866
18944113
19734880
12599332
29361168
2130051
4757649
786446
661889
29492932
1362437
66112
4861448
2296160
34
5029888
131098
39205
16789640
8498236
2640050
5905432
17835560
530242
10880224
14098432
4600972
179764
11862100
3154947
6587492
23444481
2175114
8400385
18484289
27299851
560193
10523664
26294864
96397
2492513
11208321
17638048
263179
1332614
17313216
9660438
27677024
17844322
25215397
10725905
21010560
4460161
2099297
23078440
28655640
25202820
25848323
6553672
4461105
25167889
5251818
17336616
9576320
16787492
4203585
23079045
2105448
11444240
27301256
29377536
10240166
22049284
8727112
8726672
20087110
6619744
19675688
2130433
11272212
4282880
17033730
29891082
5378832
9480964
6513024
2116361
25784456
17895687
23101774
12587616
68144
4215228
19005524
231434
13118832
31597824
4593928
16946184
17829890
18088080
4211360
2102450
17023875
25240450
12868160
1916928
2758930
26017878
1182744
1114200
9066588
14160905
8564768
25172005
2326756
14047502
20217953
19399692
8525346
3720720
82988
1844994
2412556
21119264
69697
17336448
16991009
4537633
18499892
12978257
14729944
2130072
4772584
25209220
3508096
15239812
426028
2662930
5513744
4821285
9718328
9176593
287530
9974283
17073938
2885975
8983590
24126489
9602195
5768206
18470408
9069125
18003009
266633
147976
1199328
27961347
25731856
5377794
65931
2395364
16943619
2236485
2803328
10061859
8952321
4350544
29394082
3408323
21234700
584
989443
17110162
8440096
22088210
4212866
961028
17237264
8747953
17829470
67845
16810536
6434442
25367936
883507
8848663
10556439
4863612
16868604
6332874
14426498
2393226
8315400
52096
183043
1343554
4194338
6309928
2294624
139304
1769536
8653328
856768
12657152
505154
23210065
2138341
13501336
688708
1114377
2515092
9767429
16777858
21069954
7356452
27873288
14344
11075842
25170052
16921472
22546629
4344096
9802352
5672
25952768
397876
12636298
17261184
17113248
16863363
151553
17581206
22286720
794631
26378534
20972352
9503282
18351696
3152649
576261
9699329
9502893
5244276
8724593
1534528
1054935
16851165
17319952
15040544
655681
2130956
5380096
1188963
1108
13373450
20981824
529187
1082521
29493200
49426
5442825
4227072
15754241
17905672
9240576
17958991
22977540
8528295
5702913
6570004
231683
140
18959362
961544
2377861
16958639
3037220
16810044
22545616
28345474
2102287
17445478
1083596
7116321
13762569
5386290
8946828
17360952
827408
6390944
2265496
28459340
17842714
10630403
4739946
16848272
23249024
9314438
5767236
16780588
27280409
10007172
525760
2098227
406032
532768
26281480
478265
2281797
1712363
11123586
30806348
8425984
329960
16834593
31294016
4786188
4440587
5802113
12795818
19273768
12716032
18489740
2695570
551492
20980889
7887095
21022824
402484
131270
12617153
31535771
17109572
18358280
2240768
26510352
5548230
4304934
4685850
298944
2134584
1249302
14700820
8448032
31478624
25493505
19406468
1837316
313890
3311656
17662524
9635853
11015434
132133
524554
1671629
163930
4194827
1451336
13836937
133952
8389733
6621201
14680195
6955344
18113032
27787335
5253857
721544
12582977
3802693
4395268
8493248
17238981
21004392
1052673
17072180
4980904
15732998
71744
2113876
129034
5539953
1572997
4555910
5276291
65794
18952963
17170727
2122480
9474434
21576797
19147778
22197251
1098673
3178849
1704058
3146800
11157704
8591378
21144069
296640
1417474
21007920
29918336
21563888
1576193
21578497
2101301
8468584
4411428
8839682
18888833
11841536
266498
14430485
25772096
9228420
7865820
2074
2232323
2098229
8807442
344081
5556992
26290722
12081048
8702288
8496869
836
5537793
16792289
17351236
17609
16795410
8665636
16908
9966224
14356736
266767
4278832
29335581
5439504
3178538
6408226
2441428
4218194
7874692
884792
16779465
274018
18219392
4778562
26649636
3547909
28451344
8656460
20055650
545859
8798276
17825888
17828652
23246080
2359745
3410056
13144825
1589848
2299200
36996
11043353
8462861
823556
569728
2329376
7112748
9438595
19578920
16928995
25355317
33464
17047650
8712240
2572335
6411088
8553136
21889424
29917698
2369834
12764288
8458373
4229164
7345232
5518992
540816
17588452
25183753
21637120
3282256
2493958
13394699
15663249
2361811
21364874
1204752
16834609
29384001
4231831
22580616
26223654
16913084
22647824
4261140
17965224
18933904
1705096
677120
10776632
950276
5349892
4616718
2842752
4448258
29400197
2730052
8391488
2955396
1573123
566292
10657888
2759232
7124994
22586121
9192832
21324868
5343269
4673
18567
9572419
9111684
9547904
23368745
149506
8422115
2129028
21898258
27545664
29361440
265216
17305691
13307958
2167307
13832
8806916
4281105
8393472
10780738
4211520
2638224
12837160
426278
17048589
27264522
1049857
8784080
32606810
16779273
2242746
13788202
17335616
6557105
416261
2634113
21004314
6881792
25428032
16788485
17910944
16779522
3702868
1640129
137290
2981892
8392898
17605381
17470536
19513628
14077962
2753632
25892353
3680369
10814016
29491720
8809254
22024488
10002500
606345
4423686
4281592
284992
17301831
12951814
41312
2365776
22454276
70150
7346264
23330912
27274248
20981920
149260
4473737
85424
22582017
27459844
5087698
75778
25445441
594432
11601444
21564326
9438470
25447496
5767954
2439688
2935329
8622112
8401154
1083648
12640304
21594560
5472516
1054956
8426754
2326538
1112335
2130447
8499233
1196290
2134401
24217858
8655361
817804
26348816
3183169
11976848
25256192
8804932
3707530
19274917
19948848
25494528
10420584
885809
8653825
339968
21056608
10553868
724405
1597703
15503376
1094549
8583808
10863616
4243728
17858605
4723714
8521664
5509635
9118720
5943504
19089200
12716354
4195066
2933696
27402345
16917124
1595405
12714180
5829762
5234960
6293592
13375396
15273993
140326
533273
204878
4197811
17465868
3654
16816298
18901504
1401859
3411990
592512
33108740
2667810
10485795
8457220
1388946
6044168
22037717
25446406
136276
8454776
18879274
25172556
5280385
4377716
9439249
27268356
2716162
4246173
3671368
346131
541936
16908380
1892368
6451769
6620242
4938251
10502931
6898337
4801729
1966986
4915648
29967500
9054736
3080720
4588544
5556657
7880900
9241233
23072293
23465184
8433952
20382353
24321
8536609
2256008
266824
8393768
19481392
18907920
28754707
5394523
21499417
10617356
32507952
1065729
32971010
8691881
5783568
6521
9634884
3808788
3088635
8388868
5259800
185433
2098882
8978520
8458339
3152891
16804416
17957929
9715844
14222657
632904
7416592
12583829
27275363
6307952
4195848
4194833
1115849
3244034
304769
14688962
18621850
11019371
4215040
8405634
16966948
29495304
29494289
4293221
28738085
3418834
2183329
5384278
23320202
19239425
4132932
1360260
19563928
36377
22561315
2627625
2166928
16810688
575540
8921234
82560
8529171
18188933
11650310
10499089
5243784
383752
213697
2107397
4829476
26823280
23240200
6425090
19275846
5205000
21103184
3442241
8529922
5408005
11540484
16912976
403600
5308736
1810
8519725
3265152
8553546
4752148
545828
17114736
2891912
4390949
331272
74253
792930
528520
12583728
13118257
4739138
1053853
26542156
2236753
5398575
18916042
152842
1844305
3760160
12623952
16798017
3179138
20168784
1084074
8394912
3671060
4890882
23102568
1540232
6324290
267009
25435484
2097456
4358656
8787646
2492930
8912899
8456708
10748065
9112624
1704145
3416325
17893132
150581
11019952
9179584
18514093
29624586
1790976
15237198
2494101
1329187
16865412
10138119
27656737
3735560
8394413
4390963
9212052
8651140
13911744
1573091
4128978
8931841
21111014
21393760
821
8411656
14025632
12587008
135776
9961584
18962176
528401
17236361
4637133
25303046
4268160
148482
9113344
6619296
4457514
17572931
8994852
165129
4760484
22545178
1383456
4751777
4407824
8783463
17039569
557538
2886230
11547267
299185
19407107
4287750
19575390
27820227
7619424
20058444
1024
4354571
18874640
14754
25201568
6835720
61453
9970199
29444098
5113348
121600
45762
2138114
4240960
12781699
2395360
20355584
286800
8401568
582660
21037209
8870
16854577
4232488
1038340
9881633
17107396
74017
16922880
1314834
313682
16896440
5264390
9470017
5315718
7340546
2753816
16842758
1333
2367574
2360676
1442066
25176397
20781600
2379145
16908588
802066
26303505
463558
568660
2646368
25237642
19147056
1319481
235040
114733
16781408
2441788
4625792
149009
2255625
25363777
2177033
5064836
8782854
12584744
16286377
4395809
8982538
7373728
3809290
19153970
17827520
29424172
26297160
3675287
267920
17039644
4986549
19941632
2114833
8437769
3813538
19006564
9570309
5669716
6686790
4687874
1769516
2122368
27657052
9873457
5456641
788486
525936
4785088
1079376
6297413
2626
9502820
5517319
1318984
430531
305217
26229826
19005952
17996025
590977
12159248
13812420
1181714
19277872
18881697
7119105
23501056
21891340
12338304
8044544
18088704
25886722
26755332
28314816
692228
272432
3228056
8525344
122921
25186560
18237448
9191445
16809346
2491072
16944
16867629
17842592
8685584
14747924
23101890
21823557
2662435
6304048
8454400
25475601
4493412
22864
28069963
10486881
1073483
8618183
21181315
6374033
19284034
20240706
2386581
3285465
17092965
2113903
18929986
529990
3879152
2376705
16974816
7602242
16922985
6522400
31607368
5251328
8454735
1052772
131338
19644681
27533482
2097202
1097752
19539136
2654211
10625101
3156997
596176
1970176
23068972
17694945
18941200
1442840
21708874
2116146
1806456
10653698
4769796
27533508
4195380
17310278
214082
5575978
8126466
8519705
16803978
5080080
10489872
9478147
1939730
27787281
1182232
18125708
3693096
12271624
22069641
361568
17302878
337712
6561933
2633802
4383366
3822105
1444113
25632
724392
1348354
21512217
21301276
19007616
17757560
2756865
21684232
27320720
22270499
1499650
5115990
25192779
8728
9633920
13976069
6418715
11575323
3409930
16818514
9994500
16831249
8406612
469058
17433346
16812653
5347491
12648968
8460826
12603398
23024192
17303088
10772809
8739078
21393920
18876422
1835018
16893076
919556
74146
11600712
295425
16082180
17320264
8960257
20989056
14420096
6881344
4342277
25706528
1688009
9322516
5287948
18964682
8390096
21640271
12616744
4990977
24215876
17122320
1846593
1655684
1855488
10879766
21238347
1786412
1134600
4366464
2556096
16777350
26448256
8398008
27412949
84298
8389764
21054473
18622197
4768257
8388657
12583172
336720
19137540
29428256
9146422
1005668
9445389
7875616
17368068
4252742
11862792
18883840
335936
8716312
20005650
6357544
3812644
4195072
2433563
19006509
4885364
4724240
26078888
8796435
14357288
17056200
8685593
29956
5808768
8391584
11543188
1458368
15925376
17072673
7344450
2723872
6031394
164116
11739168
4200609
3259521
2242178
25166850
9533460
10141762
5320907
3017172
13379096
20992560
4211273
17045504
8428038
50704
30423056
8487952
1245217
30048796
25175672
6320195
25829645
7782568
466976
23070759
23331066
25690668
166417
5017701
43545
5857882
295009
9834147
2666536
4325644
3024009
106626
2366832
12572
11800579
11010177
1326929
148
10535956
6392468
21104196
30771216
1446915
18090243
12126472
2372320
8683534
2097549
83256
1835414
436900
8557120
4762918
8456584
25166353
10301441
107537
26222736
25708224
4493672
25299097
12753440
16959776
28508420
21702418
17317889
20971538
6161824
2387984
18956437
4853254
8523969
4784416
6381672
16797699
17732
3232256
1275049
18972805
14715394
8488477
11544197
16422980
104496
5443661
20658
30015528
9492098
8500738
8421796
396452
10756616
4803462
18939917
5287236
1058956
1114802
8538642
25561124
5278361
1262240
29622532
6296448
18096710
6408738
4890728
2343572
31096976
1413191
16885318
1736872
1133839
12583284
591648
19995904
4359697
4761794
6984098
8667588
18022472
21128450
4346396
28541825
8520722
22020611
17894980
18917416
2239049
5507905
12861589
1147014
3110
11079169
4327882
5275719
8398979
188692
8406786
17415708
16908375
17047569
4630562
2633830
2180224
10002880
4211292
23143954
8487439
7447234
16779300
23478304
539712
3228948
30788
1348163
13898181
13870337
17040012
5243206
2780177
13371680
8934650
3539084
21516312
29966600
10627088
4742144
700933
8430643
309332
19465834
19411461
6361669
8801041
15794561
15905152
11797552
13386752
103584
18032587
21447010
594944
558352
25572612
786828
18354198
6391452
68612
17040400
1578240
5505319
1196499
17320449
23078980
11667598
9505822
9384196
2753536
8529178
800146
22415406
2147970
790821
18896010
17543168
25498125
24383642
9912322
197704
26610816
3163023
11010051
9459765
53272
864
196786
4202629
12291
140864
19137350
5837320
8588949
6310466
22093954
820504
9341472
8521730
28016898
5931072
25174019
20976388
8725648
37380
582930
265220
1126548
29952768
1478666
21633032
345428
21607177
6461569
12788492
8939616
17832466
31490832
17877600
2102083
21529698
23134492
19103771
5478145
114972
6657027
17057096
707512
8531973
18129920
17203292
1156535
24512536
12718606
21368134
561632
10890880
2261076
7734281
24134965
2113693
8390677
16847326
8525092
5668886
2233586
12616979
8848908
4933300
16991881
1058976
4768289
529441
17580578
25472000
11665536
4464659
19341888
2484800
33161219
16387
8663376
682024
1886514
6306059
8524032
6306696
143780
20130320
27001614
6728961
19007768
1773568
5286336
11605392
4661760
2242057
12655078
3145764
23224597
5521792
222885
4722977
10534968
7012644
4981380
6825008
163880
98321
25823234
279552
9705544
16437
9177602
794704
1181080
5259424
16786056
5246592
2102656
4270112
8683528
2166885
19271684
16836929
4473888
19196877
3637386
27070464
25191436
701070
8667146
12076596
1085468
7342736
21501090
3737162
10379
2766419
1310722
2097290
1114655
18125400
630456
18898965
18097315
8394406
1051568
10588676
4194336
32832
19284609
262786
2256912
25433600
9726002
66882
99156
9257001
2111522
3149888
4899042
11492
9495122
3638432
2392321
123201
3197513
98327
2366095
4523210
11157581
17827914
10618976
4792360
3975264
26402825
3211864
277784
8560965
32785
561179
10620969
11571329
19202340
567921
3155992
7341062
25166672
2105633
1237024
162817
2114728
140048
11943954
5059105
11143168
18186801
17305188
19234996
527874
17965847
1589504
26280457
295724
12738580
13369878
17566732
14960648
16844917
1475221
12669316
21463308
13115920
17891346
12615781
16852609
26354084
1356806
10631192
21233678
1311936
25434650
28312161
6656769
9668641
14684187
16909841
8389146
28574350
8913282
1344261
8394953
8405192
6471835
9699656
18027585
8951318
93224
545345
19366081
4277312
13373705
2400354
9229313
749568
8650834
10494110
3148233
17983246
29559811
2135680
12699396
368734
265266
172200
4457856
20616456
12585994
1097986
666404
8548874
16782673
18115347
92181
987948
6337538
2236685
8654981
13812064
671840
218880
18137920
17893952
19923978
2176798
18899457
15235734
4719111
9700048
103606
2180170
8460804
30419264
10524814
3392
8397962
36868
12257295
12656
5496928
8590413
1092709
8406722
20071504
17848357
17303424
2396168
1065224
2105347
12691840
254018
25370954
17565200
4418633
3756062
27410640
4203146
282854
14170737
647185
17310754
18944242
25176194
2265217
12863496
22450688
26214980
10553345
1626122
27934737
108545
9356420
16783932
28090416
21498000
17303696
13111297
19951672
10007008
3412040
13377607
26324997
20463744
4278440
26935427
1256348
1575488
4194913
17078281
5779456
8921824
8388752
14713380
319612
4231182
4328451
545433
25325580
881065
2364717
86160
25823884
4197384
12719200
2362752
28380356
624676
8316
16882752
9570846
6260800
315521
18352
23335425
313396
23593100
19574839
4457496
5248678
4543249
23093361
33886
12746789
7081130
20451350
238464
15210562
14946363
328711
17572912
32770
4984088
10512616
278708
5318153
16821976
1066178
25593124
8723344
8682568
96316
28426274
5319822
4513928
753936
25539152
1612040
19047888
781330
10595713
2547908
300101
17008784
10354
6559748
4588177
16795660
17176588
14975105
17305937
