1529993
17446657
145664
590156
8458291
16920714
8980680
14682377
10692808
6922764
28321028
27813928
584
10528898
603712
6826692
4735013
6394499
29394660
8814722
10502912
4849889
9486339
4928563
8395026
2360348
12854281
8473122
19203081
20130338
346186
136258
5964818
5519496
791888
16556448
16873568
12522769
3934864
11272740
5335208
12130306
17916036
4207328
221835
1015913
1053584
3344384
17394440
8410560
262153
29626385
9095496
5263172
25696336
83916
18483216
6572120
582658
27345206
21532696
4215808
13402450
27353250
17365440
16883844
17828358
5374599
13135394
5267236
13472824
18384929
8593414
18918675
8456376
17838153
28475655
10670915
18743630
12795921
4206600
3554304
12644426
18350944
181766
1073420
11502152
2629772
2663057
9373197
852290
18435138
12935354
11628061
11300876
25462812
25268748
16122136
9617639
8913364
18362498
4349957
19989576
14909828
2769440
29368356
8519757
9535572
17322011
332128
33506
265502
6914145
2118673
22025227
10683809
21383233
661520
6422661
4367064
39168
15109409
24985617
8927234
29387270
567940
16868800
18032652
17306690
23385
22413596
16778120
4264239
32936
17973268
25630352
23220547
271300
3276800
9320449
3114066
6469634
21038309
11228281
4259921
8920456
317824
6924300
827829
17336960
3983464
3221910
122896
8413828
427072
68640
625936
17834116
11551841
16831492
22107219
13631635
1441930
8405827
874307
8868
786593
9733345
137033
17044230
4226064
5309508
22110729
16840968
527426
4198500
312361
25442565
19270
6302082
4195848
22564948
10043651
11552780
9576457
29393542
11534881
2298512
13636916
283532
8569159
25450768
22055490
4841508
3164752
15552516
22667272
528689
1208361
21272832
8545408
74064
7733902
22937613
2400914
639112
25166054
13382840
1572933
9458528
4983177
394038
2789525
5645444
12722820
1085572
4198484
6818401
17898016
558152
1082209
11545600
12125186
6645776
2115386
12801028
795770
1156
26401024
17541198
5333064
3213824
14980184
9183383
17619464
10758
1216577
6034833
546356
1625612
29629568
9083904
4510408
23364192
2361674
18449153
401452
6291792
2883656
5803092
1136400
11011329
8554117
2176424
9511554
6488856
16815456
305162
2688261
19292165
4522033
6029336
4559008
5326085
16031745
8396868
16777220
25465152
22316192
25190950
266096
16896032
6348801
791821
16779861
6111692
5010514
12820992
135690
25212961
18879822
173571
3870856
23201052
13909800
17427
6422688
8701736
26358306
13632624
19492434
11545717
51613
16910605
270605
2427264
3199000
18813
29769892
386630
2183428
2179
11649434
4720657
14884946
2626190
2601764
4334404
17041712
4718784
19204116
5275803
75530
360512
16810600
20512806
11056706
8836
7422101
4329697
21640322
4721700
17130644
28380168
23208448
6353346
3231773
3170873
6824384
552992
23203
21251541
931904
21696660
27852800
8863811
4458632
9178112
1118338
26890241
84008
25817472
3253120
4318752
9196840
1124064
5652522
480005
524344
13449288
17568109
14831688
28366881
2736582
19100166
599060
16810516
26741442
17301531
25825696
1475352
21574671
36952
5251696
16920584
16412771
29885700
838018
4791808
4915202
8942082
30281970
10523715
1057236
36168
196870
4233384
1179777
1533987
23331875
641156
18172162
5443584
312348
4196418
19487570
25223976
2166938
6187144
5875769
8978944
26476547
6882900
2851124
8913429
10740290
19398792
9706729
10486281
18874518
327808
21069958
609241
6832290
30474244
6425218
4018176
464261
2225440
1207429
4221952
13771776
10232089
22684737
17895442
4552394
2344961
3147296
4922384
7837704
4988162
2102552
59520
26218198
558880
31490321
8392802
127296
9965589
8665324
2121988
27276336
2634004
14880
5374682
26550386
10551333
17957224
3351139
29950352
14779680
131953
5312528
7078528
9269648
1196753
4622981
2138368
23593066
81931
9601378
17995976
25204804
131144
17253628
822176
4637062
10158861
18909450
18746048
353280
17828992
1048876
964713
331782
4336391
581762
1196363
8520194
18502482
786780
17227810
13253922
17326341
19488784
2165040
22024264
10196481
28377088
6295578
29491408
21947906
164468
99148
1320009
3154208
5537988
562308
8586322
10020917
18125441
13634048
1875082
3145940
10993689
19793938
21435200
2654213
17045385
25180175
29037080
1098246
8724497
27480707
7485564
17453073
318476
2785683
18979201
31457280
9495648
1147465
524617
4399488
335251
13337360
15339521
1052681
16779680
9094659
2404440
10519809
2633760
16814166
1067948
6494354
8916660
14156171
21463370
8521834
691586
27265056
28379522
2380355
2310241
30900488
25208970
338152
12616706
4255808
10806548
21059840
24289424
4469205
2534980
17844832
21039233
22153745
7354372
16878665
1040459
8570538
25493504
8388641
16850513
29377685
5550606
528688
82658
264461
17564740
20234256
21102712
2132496
8520227
10748507
1048850
16801794
19403362
1690690
13095168
1066122
5135666
16810025
14688273
131078
563716
83968
26312976
789953
7374990
13681298
1135190
1071616
19941697
1325953
5905793
674184
1418776
6464108
23089545
525312
16797818
10359048
433272
542882
10402
28623361
17007106
25223687
6340913
4211203
141382
22563872
10556946
600104
9965833
17014802
33456420
18883905
12599309
458948
4899856
16973828
16777279
17891774
29483137
1055784
1574716
29656080
852614
7405568
2147406
9572366
16973848
2103648
26215488
9520140
12877837
341530
8407252
29893800
62465
1119312
19421264
17902074
16781876
4105
8455312
1319938
8851597
22431122
352393
1051760
2169420
12059220
19886208
1609990
16982280
2736193
6621184
18386960
3211784
14682628
5256960
1576998
1073224
8504417
549177
4208754
12845190
17049681
2638161
16818452
2904644
13130766
20972706
12806261
25180801
18089004
19678478
483468
18382892
4208644
2140288
528896
8540672
1660296
2297687
291200
25299018
197888
5777984
3394328
10596353
1290530
6850560
2818364
17932312
2625428
197410
370689
12683288
19678610
8847379
11534385
9465857
27934848
31592970
1217996
6854964
14955554
13688920
2239248
4204832
5344052
16780333
25576264
1735649
25313512
361666
1313953
271650
4202544
19074628
3411970
8692776
239108
14822848
11872268
29646913
7603200
16937648
23349848
29502633
22430404
27339852
4449346
12732421
6595232
5508134
1085155
11551760
14155830
17338372
12208236
21762836
26561544
655584
6320432
8588340
470405
609314
26313856
9710094
12326919
213260
17383440
2148192
1590576
43085
6578180
17105704
27820993
3288336
17240083
22037588
11099650
1348412
5095440
1673553
3294186
20981336
2330668
18884609
30155283
559405
3211949
22611984
1818688
12738640
4718610
4864192
17654785
4195235
25841744
9678870
2081156
1966368
31817792
6865110
6558272
334858
2173957
579968
12877905
28704785
7537040
26694
2126096
1245700
2182176
8397184
31002720
3149026
27264073
13145330
148745
1331226
1852424
5356320
4209248
19796066
12857633
6881280
4205824
4588034
929
568396
25195536
22662945
8391888
9722115
10522771
6841865
20973587
14681344
18022605
1404929
17303665
18875539
12845216
4195279
21893985
6086720
852628
557596
9458417
25428233
10133512
4199088
3550528
164784
8393240
15616528
4720772
26952832
20910144
10667649
22454080
26419300
17342496
6754960
4161704
18630305
2754409
415902
8650753
19156992
4325569
526472
1057795
28
21510148
11813080
1071140
17869861
16795044
2236982
18875456
7602339
18882690
218388
23601574
94758
6694208
3803152
280
25166864
3409176
21005504
26871840
15337218
19934720
25250101
4212416
11608578
2113552
2794024
16929857
6849046
7348289
4460611
17334344
2154544
21623825
16803093
16811558
8997888
17171466
16925004
2097408
24129544
68622
344465
8607744
31985990
13757776
915464
6374057
12862657
17044762
9932048
3985440
2277447
2578688
18895112
2134194
835616
23986628
11602313
786465
264466
49665
12877829
14029064
51329
8718496
2622128
567812
1065444
12061829
3156232
19923220
263462
17666049
28397587
4756656
1722900
845067
12726928
6688769
113969
1180260
13238467
21063712
13435434
172555
17166693
25987399
500308
5245986
8876036
25462820
1057346
5459587
28856324
18027098
12584974
12092609
188480
428232
19204615
16778825
582856
1067146
6360721
6293820
2279555
1704215
21038243
67594
21611040
13644872
425985
5718944
2176724
2099938
729304
1728592
2114252
15240717
3183205
20480024
5769911
4203137
18678272
17577345
11571304
1150400
10682806
599380
17830173
165225
16982745
4212482
8437000
8455064
83972
25371218
8488066
27787428
16780920
5726529
4096017
16976257
1446052
10553485
16974229
525856
