354576
20971594
17204770
789012
131139
25723682
10126354
8697924
34983
17105109
1331216
3473608
12602903
19933737
18083
1348683
278536
4726883
22058192
25493637
222338
9480274
1753540
18884769
5261370
4932100
7340202
1409504
2424842
31523109
29386368
8848132
565333
18302224
27544520
2691408
6312202
2361890
2548631
23134765
4595014
2397275
8921944
16933888
2360243
18129302
3213365
25194496
8786296
2107545
13240646
11610117
4194436
10642432
2143305
18982016
3176576
2120998
21495944
18874892
13715473
26760
4662498
21837957
1116682
17105520
688556
24301892
22344724
221268
132360
23075301
20986632
411746
28320768
8922144
19411578
17376
25191425
3625252
5511171
8997122
786957
90787
23467012
18423808
8406535
17121411
22024272
1449271
17350656
2270100
1114404
1048609
18990098
13243160
30085441
16975944
716816
21014907
8389926
17373505
18894213
5437184
272266
8454274
23087290
10545152
18266664
132028
24252416
21568200
1069073
2953
25495768
4326464
10503267
19400992
278828
8521796
8126644
8400904
17565185
10502680
17916449
16946267
598357
4063728
2724368
3413184
299556
4456773
1119229
9055768
2232512
26226946
10014732
8012416
4988930
3298563
4834826
5657634
11288600
17643617
25333937
17630358
5384496
8816128
4850710
9449872
87314
12591744
26222728
1332269
307244
16801923
2235700
4203787
3352856
8658960
17826390
9062848
14702928
737408
17607008
2253958
26215640
18883108
8720036
31592753
15599672
993805
17060884
23261712
532497
27427355
8683554
17314371
24118373
4355
19797048
72784
8388627
19257646
13901936
2622027
6062733
3317953
131586
8930629
17134080
2415633
10486818
17227923
17304192
585776
41059
15222375
17015117
11019
9388864
20187539
11832452
36937
29885444
4358985
3138624
16011786
1704033
7655812
1081617
2127873
8520841
82444
16785230
9527808
12584984
2654536
14713904
29438048
13705227
17066596
11567234
27812384
4231298
2638468
32773252
3180552
10240000
959682
24531245
67752
17322628
3674381
3279936
17334592
21248332
4672595
80640
5288776
4262016
17859586
12604416
25952321
292096
13940896
86016
25984
571393
17170736
3285904
22555276
1869379
31473900
14685200
10682437
19472648
6553862
6788705
3179337
14197296
1245828
16835608
9181346
5507612
21515361
602242
9983237
393344
3187298
78216
12738648
3080704
138348
19012784
16942376
25690884
10518560
1311645
2130946
1056897
6595606
11174788
6304034
1065476
29139681
3941376
16777481
4293160
5595248
366852
1122312
2818257
18350080
25593857
4233412
14985221
9842700
21112837
13730326
6292801
18546697
28345712
16826708
2949825
2687936
313490
395396
12583969
9602434
17859926
9535560
6365485
802384
28354820
4384
9597042
1327826
6816584
3266692
65635
8486990
2136641
19256
16787076
23333915
11671553
2388228
30018560
265018
8701960
8422976
4726400
12496936
18958336
8831072
67222
10626816
19631680
5304770
393308
147459
21528804
9318724
25166389
2118283
4195333
13009112
27918608
26110210
2198730
16880832
666624
12607688
13152
4464128
2385939
228
23349284
4563848
20186240
6734336
1183820
36016
4239776
10511680
11152752
10813972
819474
6489224
706631
16708
10633478
16811016
8409096
21508130
25247784
15372289
6425472
630838
4309318
13108321
17236992
5382289
8400642
4343945
6401
8409730
4719169
29505880
8556569
65772
4341808
3932841
6368032
8473
29982904
7286912
1196819
460887
1403192
525614
559658
361745
18874885
626718
18145280
542785
1339656
28184
2656064
2173512
8669552
20070921
16941832
950560
12857913
16822082
16911896
99456
21504007
18940293
2433025
4293378
8622736
10027460
165059
13255716
9587720
8397957
4282376
268296
8684801
25565704
3319055
12863576
71200
25481216
1123176
22035020
942472
2949388
2804768
253962
4808800
4483603
25243728
5263457
164098
22282898
2237078
17483204
3224097
4161628
18878657
2338897
3150112
4737844
6624084
4351394
25801793
8411528
16941779
19693618
1094980
8673324
13780032
29380642
27312385
5116436
10494260
2118916
2114578
16949766
25184388
37125
2425570
2129923
22562402
69862
6410281
25330693
553202
6105616
13452400
5816976
2926592
283669
16778848
852224
560720
5344294
16909753
14968833
4482
1524678
20333368
794777
10537186
533764
4377984
11534898
21758136
22249606
30214229
27197529
29778240
21037445
33129
8555818
20982512
16795976
17155584
20988016
9508870
10226
557057
9310144
8393344
16975925
24117284
5908512
5945418
565837
8113225
6689792
25170305
8795156
12583009
10887170
4464757
8470944
7013802
78894
1514049
16941385
4770820
14162048
6685040
2235000
7340545
11649030
19991858
4656642
30037028
6829568
5841943
168965
23089160
13173253
11027625
8487265
4340227
4393093
1451009
8538152
16794115
18088754
1130536
12615693
65568
17063066
85536
5910
8417352
11053904
19172168
18874646
20975884
7868686
9182513
8524084
23405208
11829896
2392513
16984076
332054
311308
264920
17072154
6853685
18158856
6821026
8917104
534237
25479686
354448
74350
537602
28059910
2642752
1257857
10039368
4200613
9699474
10514453
2379977
4359171
165806
17304145
13702164
4236676
102677
2097296
11100768
27011109
18387136
121352
19404357
13681792
15532097
25102472
4489245
10490472
22057017
607456
21005717
1773952
2170904
1016192
8437988
1083912
4358656
549480
18325721
3153216
22111270
2178571
8913168
29360713
4474752
1006634
12591232
4208706
4366852
16821828
26740868
5392514
17081425
11584001
4251796
9454665
4988417
23331080
6308047
13258304
23374978
13708483
17307674
8781894
9439782
20099333
19930624
25709640
10756936
22349675
31261
16320644
29377858
12662212
2105359
6837376
726625
27078707
31139089
4736791
8503348
9867352
1353736
8570118
30091703
25463104
4329682
8867008
17006688
8740888
588576
8411328
315680
17957937
9209992
7475456
8093698
18449028
6291522
8534052
20464716
20518944
271364
2105472
19030517
3194931
22249489
17039361
4588358
9928944
21242112
8913492
27820730
173348
26630657
4589986
16850198
4309575
2163244
6817348
12947146
321780
23463980
1086631
16959120
3155491
4546713
17433347
265606
24396480
6293056
9470816
418948
9439747
25199248
27011085
683
14736912
2230440
1052784
26899076
1572937
87142
16781854
17846593
8193
562241
327784
3786816
8133160
819347
17310108
28002880
141914
11407368
8396874
17456
5685269
3190808
2134426
16793916
27066379
15966599
7414016
2123803
1848338
2560144
2633956
2381824
20453217
1051814
22054336
21372958
333997
9703514
9735936
16795682
1622539
8781938
1722381
17957058
5524560
4456545
25430022
13074945
16081920
3672228
22380674
4300816
23228688
6319526
2634025
6554328
1128836
16777271
16846401
7866166
18232352
12588000
4718969
22239524
2566176
4559366
924938
9642145
1654852
21009
8749065
13632593
2427017
16800004
22020842
16929314
4195606
21250306
795359
4296758
135948
1057124
29361200
8954513
21234771
25601129
108576
16007219
1056397
17518612
6712432
4986369
2122951
10591904
16814530
22383144
17048264
9738144
8921605
26318040
21141508
6347280
8789266
6631526
17186817
11043520
4336194
21299337
5982130
1050724
16966344
21268768
31609600
1867852
2261013
20055752
8931684
17408
11141632
19936136
4295176
3932177
151680
25440296
4752193
22294980
1335473
4236301
1638624
17989880
238920
408064
8913433
1114589
20398154
286
869062
7876640
1709058
131228
985446
215058
8392962
19644482
32796930
4296276
8556634
9580736
23610390
1179744
2399617
23990624
3015552
26214944
12228282
14697472
25813253
11855108
1050115
29413420
10523188
132118
17433297
67676
10896872
29375048
29430817
23226520
19152898
26083329
25238788
102474
4243457
4274176
16847700
26017801
2103430
9105984
3678801
13381740
1091084
8405256
32538657
4227143
17237253
1189952
16822579
29954257
25330176
3938
296978
82944
13681156
2924544
3163404
2526212
4195370
9602212
14684163
552000
17244163
271430
9568846
18912532
5779713
2535936
344707
7651859
10852426
10518784
10476368
6428681
22587694
4274500
6299937
920586
8389473
1095733
537225
19073028
376890
5709386
5009968
8471561
2114114
7439444
16779860
8931908
15796612
16950400
27918432
2179082
18393475
950536
6300166
2132258
4368000
19465536
9573920
19010712
51776
9028608
268361
19136788
1196804
17237041
17861760
8591507
8012549
10616865
10027008
131314
13680931
8471106
38408
11026480
660032
2185092
10753061
17303841
1151170
25756072
524704
13927584
18374676
3234450
3182368
8483312
18463010
9060704
8720597
11672580
2293877
2627890
5916723
18284544
10543686
22839464
39520
8489552
24406147
17078856
8417560
18133077
6291596
8650816
12587008
5112321
9978905
4218931
8684870
29919342
134989
1184322
524672
1971221
1180812
25825290
17960712
13500640
5283996
11056904
606728
29966348
9626
26951688
19665409
23241296
8390684
9207902
19067904
475461
18088132
7962663
7061504
694412
26771548
312705
17042244
4866560
8915203
84161
20981792
4269
22929536
531590
16974917
5800356
791360
10092546
27804040
18125960
26214400
4464691
1573698
467344
11017248
12714049
2232328
5912724
23087416
12193796
3556001
6712928
16816197
4270376
8983232
9046050
32507008
7606914
9186120
19923510
262210
207040
8923326
17112596
1393416
17322416
12865679
2513242
1126808
12088853
6427468
5179977
2406552
2117326
13633542
4210954
24384896
1646915
166152
11928113
13042704
1321488
17664396
8792603
26787869
12584080
608296
228232
8525125
918688
14379896
10887312
28180792
8887048
16897158
4244616
17281411
3200065
8569286
68940
3184669
8546826
20030678
8946229
9961886
8554013
2625729
192536
1163397
2361860
6953506
8588480
13206146
24713732
14476
27802144
4194318
265362
21799552
4200471
19169281
16783904
1223206
20996160
25202864
10617184
5136896
12927048
21233686
16781504
18381888
17903208
17040000
75920
786539
1188236
2570257
5246036
1573002
21122945
11012498
8545825
19005441
690307
1380736
1593604
136226
21283178
1087508
514
4466238
4890669
4867377
6324672
2162757
20972105
29889880
10747909
9584768
1257220
14368
649633
5668873
5020166
362760
4203017
2370698
2107426
4526176
1050917
4415524
4379665
6919569
1910856
24641539
13652992
6555552
10895442
271284
2222240
5787395
20103425
3510808
18088544
21555845
18896512
4721224
10080312
1745408
10919936
12603152
4985060
147972
543272
4205207
1608194
7438868
690246
17379201
3344
3412315
2475015
8954498
27447632
1083032
1311332
287354
15499264
18892800
14690456
10564102
3211328
8462342
1064968
4793912
15860164
17891347
21275794
17306182
16859280
11708678
7536768
25765943
12683846
16843586
19992961
8473862
2637871
4296736
21037634
1483861
2888800
17944738
454689
16879784
2695169
11108995
1270022
5915619
3612
26675
714146
17580273
5455968
29889544
25503872
4339716
22858
7213697
8749073
21169200
9015400
3700240
27659661
7282944
591953
31626244
5784100
9479353
12927168
1135042
8914153
19489
8526136
4606114
26249408
499901
17409078
2150786
4950648
9581776
4882508
8560710
84246
1327683
12601488
31494148
17993634
17099776
1316380
5250054
8265812
8951816
9179688
294914
549121
2338768
24379520
18887360
279874
264218
21038498
10555427
2183692
12063043
12093960
29383490
25691216
4595716
16847464
862112
44106
18958088
29886800
534596
8789188
7651500
8967446
4065280
27538473
20977783
116841
10683216
199350
4245008
17932548
10665992
8391704
660229
13355524
10175528
1336587
2335065
25321606
528472
307460
17932769
17860723
19927440
368723
5771392
22090497
299744
21042122
17039495
4309120
31624516
4634
1709077
12853761
2097256
16979976
21074090
15407108
1272310
6425088
9650984
30435
18120720
8421402
279823
458754
26390663
7211200
19108132
9744040
7092677
15212673
6482072
2361096
270369
11031557
16782934
25661637
2560035
2363409
16910878
16908544
61761
12599942
1691682
5456144
109589
4915882
18884928
26640713
825348
4195377
21516290
1082305
1575276
5505154
1462816
131120
4538410
798784
8686892
13118252
12345
9848032
18892080
2120964
249858
18910504
4399791
5311980
663624
24191560
1581577
4260178
3147797
17473818
4261069
207962
2558912
17834002
1607001
1835161
656532
23646219
13238401
1157160
221741
17041762
7358993
137357
2353428
549216
4672522
23134217
4293262
8392713
21440616
7713248
11145729
2196196
7664144
2167074
5639460
2185240
8618240
606734
17042989
4507915
4334658
18934018
12628128
21496850
21038402
9044608
13900105
6482432
17343524
7764
19415952
26034496
19925012
13648000
10248753
16805913
18874430
19267728
26217568
14434322
17847305
13783584
13768450
6336808
3146145
15812889
10888837
549389
10552723
19406850
21307544
4751936
2375789
5767835
19420425
9576656
1933384
4196107
1627332
10520617
1509457
12721088
14221968
75848
15737536
9156
9437442
16969099
266257
4719648
4277946
2672964
5519465
134712
118512
26495649
19716256
25281680
1548481
153
787970
13066626
19744581
27889692
4744256
17400377
17352778
2235409
3940098
9117026
9048396
13461512
14681412
27525226
10518542
13656128
23283761
4428423
16876097
8979722
18039823
8924196
14680579
21053760
829699
25625686
11899394
8796290
29907250
4838688
10767396
17449120
11043858
1069064
16797234
17711108
6345472
16827329
17203744
9707590
205329
3866706
1449987
739722
528320
4446216
28344384
28839047
12723408
400912
617280
872480
681008
12726338
33285
10038288
2146354
11739208
9478210
10518578
204801
2245665
1149966
20056088
6345881
27429264
8687684
1114448
3014708
5332289
13123634
21518122
16154630
1120281
17957394
1053806
17704208
29418520
67825
25985512
5637760
25432067
143424
17181092
8864351
11436224
2072640
11046933
15294832
2156064
18616720
12784000
3353090
6488609
4196713
4261385
17190976
8565129
21562720
31507747
139269
52737
549009
1251425
25694732
3148354
2885816
4235560
246812
12332038
26222836
8454436
17310257
28311589
26740611
19446052
9454604
6111299
405769
496133
2818577
26775823
5797634
28345632
4264544
16778119
12584068
9470576
13654281
8864
12597744
1708118
23235331
36880
9081636
18614279
27461416
10618018
17433122
10266786
16924748
22880806
16871491
10294360
127019
800787
16982913
8978956
14946448
20977712
14682632
328588
6297738
23613716
328320
9535770
16785686
2788904
656553
21119233
557354
2598
2638627
1584011
658048
2187778
9458692
11085494
1632331
2102280
4890624
8651144
29107539
3080784
69838
19925320
27279873
14762380
25166848
18890832
262208
1938570
21102608
131077
1746560
29457508
4200003
393258
23273497
11010436
22095874
1069101
32639013
17338121
17381440
29374760
1962056
18010696
25298992
17976649
2101816
4670800
16844906
4797067
2181186
2883970
3548929
4563984
2765313
5349892
541716
4354289
10652676
8145065
4292620
2246046
10731584
2705417
17314401
679936
6373389
9774540
8929714
12911872
1077255
7477273
8963910
164529
22551184
29360384
17040514
1452645
3563590
16779302
5357568
1419537
1089312
16872084
8854281
720898
739840
8461632
11012737
1574929
4724745
27279562
4489536
7719200
9218241
17835552
18303825
1064987
17854600
9798800
8414147
787904
148554
6317089
14967894
7377408
17891620
12846595
8522312
3178752
17042454
25274144
21914112
13119818
17826117
15615492
356483
5899556
12644489
21463169
4228116
262408
16167939
25509976
6293636
23102596
17055760
6982466
9511300
17563720
4365536
18423176
20973718
12601494
2167171
18223104
17306704
4728460
26515970
13804036
17041665
10748632
2781444
8527938
16821328
4719186
17304200
9535625
25252416
16983584
10764593
1921
14092417
2213379
16780929
3082497
8785328
5325658
16785713
197804
8433683
164962
12664976
17399813
8398530
13942824
24650090
25200650
21779552
525916
18878480
8965704
10567682
2443084
1609792
2532361
817164
5550537
10488328
3183696
1704996
13248037
9449128
5784384
2099206
19420435
29892872
1344656
8421462
4903272
12976385
30811202
8430101
659209
8734498
5833985
8399146
23658498
25844520
27852834
8694176
24262922
9835542
1199106
395077
541285
5791816
1100097
17834304
14947604
2238593
17858920
529228
9339169
135459
4261124
2400304
4230342
12816732
1607584
4739023
42833
2564368
25212416
6586376
4931648
10093132
5636117
98950
4605683
1057840
231616
175680
18417691
542887
13124462
17760256
7381000
18936840
1063584
16960834
1062065
4816975
3278216
12802945
25166468
1358
2140384
21106283
1470860
18223682
28942676
17825909
17082634
10786816
4292624
12587268
523344
9469250
4362754
10618992
4314692
10592912
27398258
2359686
6627858
2269578
1860610
17044116
16802496
3310128
328204
287364
17074689
18417677
3343300
12878384
4373826
6032544
23666720
658308
27404096
8819200
24948756
9586187
16868420
25330240
790546
8588386
8983456
3834176
18960400
19407956
1573589
17922632
9091078
18257153
25178904
12928768
19277829
21930320
1892358
23372035
9340496
17867059
11666329
17043525
2114355
13500722
8674825
1155652
5390364
336914
17826564
25251917
22021393
21258258
9507587
5770052
4883556
2134050
81933
2368530
22354688
6372624
3673103
31639552
18229456
9864192
5813872
4475664
29131268
12599589
23077028
14943540
8822787
2384722
21701638
27346192
2377826
2768916
1147904
2114838
10716300
264992
18582041
4200530
987140
25451060
22615936
7340970
8525074
2822161
2107489
299081
8622408
6324482
9318154
9309239
307586
1112092
1202307
10565704
16822913
19419200
4934016
5572416
6379024
33825
865550
151741
262886
4803594
148444
7383128
6330378
26478616
8388628
45298
9183745
31000088
4765986
15772064
9177413
803408
8965344
1230178
69889
954784
1049369
9216384
17078612
17632384
6176836
12678168
600192
4379146
16417
12851912
2171216
4195
6301057
952854
2140547
18507
22288864
10571146
13699393
19931586
328339
659505
8986778
6373992
10487328
23364298
9109962
21785109
4786755
17834632
10784516
26972936
12700686
5382305
1216267
558650
669324
10636553
31261956
2965521
58081
7634976
5636116
299312
12666696
401733
18031310
17323856
21416
8409824
57635
5309010
21741568
16778322
26937541
8540552
5054568
10947476
13501320
144000
566149
2110784
1247304
836195
3408577
17049290
25723075
405801
8493188
8667649
3277089
23101728
7888960
12667048
387608
2299544
788618
25379907
717121
5276418
4424260
7643234
19308572
2116098
919296
5393178
547584
26509576
12605478
21365248
4152
4227592
3343112
12723620
16977978
16912946
17988000
4981956
9887886
13130025
19046978
8512262
5349889
19451466
27443521
4206632
2008371
21253664
1721479
17581089
3276822
8413320
16867746
4498690
17836180
1181960
3204096
1651272
16424964
4726867
11561033
8716801
11485489
5259270
526595
25473068
2319568
65828
2394437
11536704
6507056
12582924
1114114
61912
8489537
9503758
1461504
2811906
16982310
7439364
5407112
8524929
8988840
4260496
1213476
17403185
19011718
3233872
1119747
17080326
27336730
598084
12881155
188417
8651139
4702274
8552603
182033
25166246
1331480
12845760
29924
19150980
8414248
1065058
22049117
4195118
9464058
27304528
8925600
25316365
21529744
628920
1245960
9712384
8396176
8784166
8792134
16964341
22025356
401921
533796
9109764
13046037
25314048
18907904
3212948
9474081
9472022
202790
2904965
2375877
21627527
16787525
25168004
17679360
1097856
1605953
16919705
22219056
271873
549365
12892681
1593504
9708819
1067008
230720
2641920
27510148
17117288
19834144
7060
471042
307824
7080448
4252708
17367577
17846020
29414448
5799969
7917088
13640128
3047713
6308027
13134851
8388648
12851336
8718488
17830041
12583992
29908114
8675332
8724760
245768
23345671
23224417
22333511
656455
3712834
2703449
5686272
664976
19413762
16930825
662529
22027264
41313
26316812
8650860
19151179
9569119
4211764
14947878
24809475
11632976
328737
2687424
20989968
13820544
1672736
524336
21561362
8912960
343841
78078
8495107
25201412
16962593
27403397
9486470
549644
661574
31481890
29375392
2367564
8399876
78099
4213477
9273344
855684
8652866
4418860
672932
5075184
15663520
9572357
1181972
8921095
29630720
17477664
6197253
3162374
2378084
17002720
26288456
6504524
691872
557065
17121803
18089216
8474758
1048720
4236085
10224162
18736
8463267
198629
270913
233512
19210759
13730336
6433792
21313929
9473
4522313
20629
17073024
5909790
1491008
1467716
22022668
1314828
2650304
2166304
5327010
9585462
4842006
8982928
9175434
32063526
19955978
17924119
6296769
31511040
16949515
20990208
6453284
3293474
6752530
9842786
1050912
19578901
1182497
87712
5244945
160768
25165856
8510498
1782016
2114336
21117234
22291496
16815765
9965186
9830689
20583434
12589361
303174
12621058
5539600
21110848
17631252
11278338
2338
12845176
16973864
659496
2715668
18908832
6848561
4818178
26544776
262836
8483856
4202025
9580580
19732674
9175140
53760
14823913
1671734
3301660
17023568
8655379
21137976
9502924
9437594
27330916
11485406
5055505
2098210
29365857
17302144
502289
6437296
5259778
188437
878108
10341
20457874
28590080
4194658
33928
2169033
8419024
10555528
1581218
17875021
549764
25453830
13635168
21112868
4923461
5031080
25266176
29426976
1311045
9801740
8587457
8492420
12722466
17115312
4194428
12584132
17326612
4751922
1321152
99906
200709
17143680
1321802
21366906
25701967
12584588
4297538
264754
7737358
626050
18355465
2141603
16846916
2058280
11503636
32080544
2334737
25956352
4522753
7495680
6419200
4501605
4330024
20988229
17127968
1413480
2491731
2502208
2108417
20995687
1704020
10486937
4366466
1085378
11783
17277441
18041092
26871860
10585216
9642660
12853393
562945
25190407
17567779
8401442
8517208
3313860
19513888
18972932
32838332
799766
3040401
3316131
3408532
1218565
1577920
2362200
12819594
983121
1400980
8389642
25298444
9982032
606857
6324237
102658
65940
23154976
8450569
6052672
1054120
29393285
103600
593056
25995280
1884182
18875650
13833
16815200
1132032
18913826
1068040
8511520
11846257
1058156
17440768
7078147
21846308
28327560
17424394
1217283
307712
9461921
529
8830977
8413380
115718
2697458
761912
9609376
5246108
656448
57573
5144768
23167032
5250124
65564
20761218
17311074
4473922
9443082
1917056
8971864
30024288
1212472
4418
79051
3703961
17351337
90400
541226
12583182
1083964
104769
5247140
17836298
8726593
17596420
2131712
86296
17859172
15728772
1591684
27312907
9486402
21168512
11026468
2688648
2458861
3309665
2622403
13107584
566448
9454128
10627136
17075200
25453332
22107968
362625
19932318
16780300
19980859
19021954
432262
17976605
20450890
2496776
16781699
2247171
545472
5540504
7475473
17042452
3679234
201172
10749616
9929279
26345474
14944280
21246036
711172
25585730
17852430
20514532
17696
12886081
19966488
643088
20475949
17826040
491707
18352171
9702544
2150852
53509
11141318
12780784
1663008
4915592
1069904
10488100
8489522
14291457
16777730
7143681
2171040
27791960
8428554
6293376
6427141
698656
1913380
13462072
17098017
10800705
1999400
12851477
14156053
5603331
9586872
27371732
16793636
13374016
4345622
3409920
2163672
1245244
2523170
10540933
25724297
10391704
4993333
26297388
16812827
8392096
4081921
11607
25166124
9446224
2185218
4227521
30549162
12976128
17571976
615085
26220043
8401034
8941069
2137172
12149536
17334285
18973790
32405
8916674
16985090
5377504
1652003
4325649
4194602
5472462
18350764
17925264
3179585
106782
9513162
16957488
6658182
6754754
3948592
4239488
4194432
4248960
19177678
1311008
5515008
13754560
4325475
18354281
25183234
52682
10569040
360482
10813992
4217994
8538196
92433
6294784
18571265
12673032
18946081
31527361
8563136
12587530
10692160
10100825
1179724
29558914
21154320
4460809
4220950
11552876
5249048
199433
25337880
1321316
24162830
16844185
25500832
132010
33289
4498066
1193258
4203050
18928768
10014484
33104
5317003
17861456
10492160
25289922
5083220
487680
240661
16978722
5784216
1049612
26352268
65696
12585271
17891840
4702262
22675520
1136748
21057584
8785591
601315
16750099
17059344
406596
6787172
30184704
1705281
8407385
18940480
1312260
1980960
2277824
3428377
8914313
214165
21381432
1251584
17205325
21300515
1704450
225537
4989787
10012692
395304
8790948
98880
8466688
20976649
10616996
3950849
27938
8655123
26489984
6529593
9835064
8658210
141387
886820
26085392
13638400
2293824
17440899
9896520
8686176
6324325
42128
6375512
2265412
524662
27793106
20678145
3146965
4587524
14705760
26251264
16785677
25609537
1204792
21252272
4456914
1327241
4719952
2318679
17335272
27662880
10883081
9603893
10500372
8524163
25231462
20093192
1330560
29525512
4424292
25178164
12879120
4522248
374145
1087616
8438099
9700168
16923920
6580865
5473424
6884608
17637890
3223824
7085912
17879052
9440777
745929
30479875
3552613
8390278
2265107
28084942
4294660
15318594
22611010
3164161
19054852
947264
13642116
2578989
30449961
30460928
6297600
18694192
660504
9726408
25503568
25297936
3201088
1048917
10619789
5007666
1101065
8093728
8411722
17701152
8955716
12587160
9437840
303208
16564752
11834005
17318492
29401200
9510927
639169
4753992
4786192
1114374
35904
20972134
3064340
855144
1442910
30981
91140
1146980
1385763
524565
26223712
27547985
21145873
207906
21496386
17499440
4501521
533672
630816
2106240
26233489
16781860
156865
309377
25166608
1708835
18366661
29474818
23331150
26288136
172372
13239554
24183312
6070535
8651332
4262675
17976320
20470992
10558848
9507848
5547012
10549761
286880
9044545
25632
25952581
8933382
9445665
19958537
13634057
31981920
9585189
17142053
6635816
21007501
4751393
21234752
30425454
6489634
9306164
9505864
7865664
821292
4989073
26481281
280788
1586260
55312
8397872
472192
3948864
816130
5525765
16974164
1054274
9297929
2551875
5644515
17057857
26468544
7667725
40736
13128336
10880161
25561177
18907845
21127689
21106950
8790160
25233955
21076996
4479104
17498460
25235728
2260994
16853664
3961748
20775680
9591136
7354370
100008
1067394
8460548
2810889
25814282
1116321
28493858
7479440
26354761
346464
9619545
5267856
808208
279105
5293248
4196617
3674177
4195339
17833988
12616356
8399232
25264285
164788
1244101
92353
20660752
3220612
1081672
19432451
294912
2098305
10889348
14944273
2105478
4784267
4522024
1052728
19411091
21045601
25217152
8684128
6296706
3835608
32129348
19744164
21521672
19669250
16814176
426113
31074336
5669134
21245583
4792602
25192512
17886225
2265118
65732
558106
721411
6444049
19996757
16778253
7753864
19075744
18168208
12714417
212
5310737
17992068
8915056
5313224
262168
6901809
3174676
638228
25272838
8964107
4204800
8585290
16794944
354832
9472160
3957004
18874397
4399877
8930070
1190368
10486788
8421637
19408962
577921
1474567
17831721
12723776
1575432
741926
13240708
2627089
4253705
9065480
4248581
10551812
17140226
22055442
19154992
13682702
3425194
16973881
9651507
29893701
4194952
16810241
570945
201880
6358100
84825
10769506
231429
19956640
25198853
10618960
26288273
169793
2288026
9445705
8456608
9541979
2120018
21283008
7932485
16797836
663876
24540194
11551246
19666965
25731601
8658968
3158043
2216577
8920133
31596721
7504280
2431552
4678144
16203849
642214
8978470
17836128
598093
4538528
10602881
2148034
19007900
10781888
4850000
4228100
10585089
16830672
6438913
23724713
19542286
525452
270784
2179190
21239122
25243744
13110402
828560
2419841
8471705
213856
25243776
1500
13713736
1250336
2629906
1777883
163858
12648457
29626501
4364304
3035169
10847236
4538384
180393
29009960
21169178
21121114
19923057
3326180
17489934
5009177
8423108
13705284
17695753
8396803
4769544
13248512
4490248
10013082
4367930
6291968
25171844
16876226
660482
264327
61992
9905163
274960
33297952
347013
4464900
885008
10224832
1721344
1085440
19054603
5706176
15768452
699137
3440769
25200128
18924592
139830
4747560
1916962
2099505
334912
1200256
28333282
2192896
2261317
1837075
1577226
1591571
1125511
25309568
721167
3227657
9610859
8784532
1517954
2212553
9441555
11024
749733
4719111
13241408
21758667
18418692
4593163
3287652
15012113
8458
26436100
1331489
1249298
434314
13426880
2670880
17977571
20251160
4733126
1626312
2628289
1837124
9765022
1622050
148036
6819980
12586024
11565105
12147728
16810117
16285714
27397166
25173012
25204774
267833
17063018
16834562
8720608
2104812
2033748
524417
22301336
27292273
17393512
1344024
8757762
30017664
17858594
2097303
1890905
17830156
26772004
50706
37893
650112
4721217
458932
297801
18317328
925859
18040388
10831943
2179431
15983201
4268628
13063304
6002
22021472
19664955
19417814
21070850
16782464
3211394
29541696
2453504
27788585
10909770
19999424
17043940
13455390
25576065
12610385
18542856
8933704
9750052
18918676
12727048
1250817
28323843
303296
14754838
17109248
20980762
28411216
28444684
17172616
479252
1280
8142976
27821568
461062
8454250
38180
9738256
865792
19005712
13508864
147694
18995208
5243377
8664205
26256136
1219700
3557569
2793616
17049128
1116800
24581
21307417
4478058
1610282
1596768
16853330
19664304
9967904
4280532
19677344
807472
2179175
17399834
9245056
17367616
655507
272600
11621330
970900
1261613
1327654
598554
17461824
18689029
6776900
131909
25472057
12780288
19077166
30835788
18088226
5506712
4199427
25509995
17304328
135254
11534448
51234
8752
1581344
23191554
9240832
21267072
8589440
10232132
28903905
23167179
17441540
8700452
1204612
11416130
4340864
4524592
568864
6308354
19464320
8783894
11161728
2949400
4532613
164884
19927075
25756952
312772
23105219
478273
18240068
14725128
16944184
12854322
2925368
16782596
4797713
8552496
2097418
4423713
6423808
393220
9868299
14199816
23135074
2130816
5869825
2134040
18435
8635400
336026
100938
393216
48
8671445
8912901
1115180
16792113
5792562
29418264
5767552
14717445
7018242
12641192
12587010
5376520
2297120
1228807
17916289
23139408
19467028
6727904
1351937
4199504
19960066
10495266
1982514
18172257
17138499
5400799
6947385
14227808
9493472
8586242
163869
13468165
17302944
3179532
19173518
8652803
24186884
11027216
661844
15729837
2297
170464
11441666
6969904
297132
20974860
5378108
8818697
2232646
3286094
8663650
2401505
22020672
19072008
9776233
29737028
10522636
17015809
29524242
19924160
3388066
2195458
724832
7210496
24709192
157316
6864905
4199692
9625905
2193593
18350093
6243
20094984
1327680
19824908
14252160
13830280
1840277
1917088
2742248
27906121
4356744
416578
1116472
25431567
8399944
5548288
311879
401448
13121602
29889538
13636768
1706160
8619152
115896
2269716
21069920
313488
21233666
11550755
29888068
420867
19038864
134282
8917524
25198595
2509383
532034
9592899
9988193
5112584
5412960
11534382
8428190
25829385
18890794
29664390
20980748
7624024
35901
156084
5243393
16791188
1177124
6709481
21200907
10686345
623634
4212768
14852640
3253908
21790856
98389
819717
8423570
4445200
1237575
17842180
8405636
5537844
1192067
265225
28344865
12985346
22937754
851986
4719406
6295608
17081604
819283
529442
23793953
8929552
14713868
8536100
21512793
17256994
13116419
725012
8722960
17054016
6432192
8554561
13634628
6292022
2704392
20217872
9515034
17310080
11350020
19419177
67109
8429733
338193
9462890
12653312
9455624
4818982
5395266
17045889
11034672
7648004
503911
13963779
16909417
5407619
1906826
22085913
8980585
527249
8917177
4284834
2196081
12785158
467009
5427728
28336346
5294146
6422656
156716
18256674
10013452
409826
10918218
12593281
18227277
4538905
11561728
229400
5244938
12124424
25824448
21308490
16745491
16805425
16782997
29368515
8570894
9197824
16098305
25723160
4358264
917859
5380674
10503942
753992
5379712
792320
21635545
28385453
19759925
21508144
1318000
23235206
27856984
17089073
23101601
10671366
21233992
4392176
6634
20715790
16937712
6324936
316456
1213460
696071
458972
9750890
7407689
4522136
2904308
1598038
7315786
9764868
8593410
29496353
2105924
16785504
29624836
262912
11010520
6070547
1271929
3490816
16787093
17961034
8412549
21532940
1595666
12128448
6294177
26781761
8661036
13115928
7341600
1050320
1310880
25182467
423088
1368510
26256130
3355978
1418276
13254662
366016
3677193
2897026
24526918
18498052
3154515
13009288
16827592
21037830
17827949
26365258
534835
17900160
2269184
1885250
4350068
1730708
27805208
2261006
31723520
16794887
8399110
8651520
4261460
2059
25702912
22153224
27429445
1328427
16798098
2446497
18239772
2168097
21000218
263176
12665373
17399868
17302931
17966366
8913793
12918132
17059906
25513984
16793702
15739073
1053572
5383336
395219
6627842
132152
12599296
4237478
535808
1106466
84619
7105034
8663052
18883652
15423066
696384
266080
2166836
2523142
26248233
2392599
573872
550450
26641988
6429441
4268367
4195224
139401
24608
2171650
5813092
25233552
1577676
16812073
4849795
17338114
4752544
4194561
31006722
492134
16794530
1400392
319624
21757984
10068032
7897222
544448
8421560
5622403
4861954
85785
25789611
5245144
6041024
10044160
2168125
8454682
2289
618785
16924952
4461579
3424320
2765200
1343498
23271
23095682
4440906
10520588
17141762
855302
791841
199219
9966982
18915873
1922056
13157505
12903571
28776
278928
2655796
19143681
10489362
9579398
8691826
21364999
3166744
28499980
4262561
11116872
18153811
29536259
19027072
9215128
25187832
2753072
17301552
16813328
1402305
16795007
28231808
25445901
9446592
181130
19155201
29774357
15270056
18367617
11215060
22110673
10262594
4246892
11280448
20057600
18092130
1314824
4218954
592938
17317969
1579585
5374224
18155788
10814468
25297216
15224853
13239828
303197
16777569
4276230
15269894
8495440
8782388
822856
1010848
1187904
4495656
11648044
5547678
26746368
3215381
2788366
4211079
4268608
3249152
331810
160131
16859904
9480336
13144388
21028880
2042145
20349064
9446608
13477888
16974236
17568014
2121807
98641
1081673
17826306
4378784
12583632
25453316
1774182
19794945
827424
12876296
1254913
1614228
28369681
4063508
16784576
16806161
3181089
8474656
24133632
2424981
18024499
17039468
5046960
8946722
17875970
12915149
21692577
3564680
21828155
8390826
1605645
16908554
3527305
7619728
18074818
8454800
16909368
21144896
8533000
537601
3408000
9448416
9076804
2622480
8389257
26526776
8913538
17010944
22020233
17123981
4370
65665
1720336
29624528
6648328
2165200
29700868
16777360
2142241
17170471
22545688
3417632
5756050
8557092
13566991
16816400
19948544
20974117
5532298
5641218
6325136
13722758
201698
940585
10020409
2781248
6362401
1315585
6357284
24544588
23098381
10518921
6830081
16657
1763328
18129477
17843281
2201600
4735872
9588004
12162560
19665024
24452030
6466568
8593427
10105954
8454576
1180178
8388898
1971584
9220888
4473744
2192224
3041378
8716580
544788
28320200
21205065
10573328
2392067
3304064
17072369
364056
279
19496992
19136524
567298
3212889
17143064
25328397
17997957
22192226
524368
15074386
18202752
27273794
3328034
1149026
4785732
5242881
23266769
5308928
2229312
5251744
20991238
16790614
8458950
301117
2621696
1770642
8798328
11147397
819796
4741248
4227073
270477
26880267
200512
3191312
231244
17925664
1676168
213121
82545
19154456
17358104
23880882
17053714
1246356
3408524
9576776
2753028
12929092
2115916
13995568
1794438
12001796
13500496
1050012
18912546
17039429
18567722
24912
139849
11068480
2580505
370802
4329015
3359137
11608966
31885571
18096513
8915720
22020288
20973596
15057936
7340050
11567617
594981
81924
2098688
32711941
2138400
9097289
27136013
16868505
16854231
9961605
548871
6307909
25570209
19968297
3801112
1458474
18940448
139322
5619792
2168872
672528
25507968
23069541
25171589
1051740
3150976
18977800
14156876
22577153
4459155
5147441
1435850
133129
5263794
16838664
1471266
6705226
3197466
1674242
14699548
9991169
2279936
2892033
11586
18488476
8474888
21501604
4746897
1705994
16781676
13768340
1277998
6583810
3674736
536620
17908426
6357128
2706345
17961996
4786708
17303820
5376361
27157018
17088545
17367554
25741676
10305589
18614276
590361
2097353
23080993
3932314
21762091
6296577
1575051
296960
4718788
29364240
3146371
17839652
1334368
10160208
25715205
27902542
2106881
12944400
21498908
17639488
27367441
8409937
9308160
1383425
14156044
12591553
13175114
9700516
11583625
9461760
3670283
3147785
386068
1051665
19992576
6272
13238354
22164960
1615872
5316658
5636256
18194432
21547284
21234372
1123109
533696
23408065
21586034
82281
2624517
340121
4196776
1051344
8495749
3146752
21108738
3801745
21696538
16822664
8425048
18287784
23957568
286736
17039969
25362460
1589862
25526347
17055840
21627649
92623
10653904
26575057
28332372
26382341
17435824
8832772
565444
25273188
1450648
11021009
73746
4590788
17159
9095553
829003
789611
1606592
10745952
27267288
4931729
18621456
19010246
19970112
90182
2167627
22267428
6507568
6881426
86153
590592
17457220
25232076
3182712
11571206
4587533
22790704
1581824
2359425
6651904
1376864
6130749
327856
9438212
11011092
319520
5777424
2235614
19944497
19387924
9441956
26236938
531076
9701004
12588754
16786212
1058978
17566352
2261024
4325416
80426
1455221
27368960
2112
25297924
8392832
17899529
6357064
25182721
1675333
2318352
135248
6206662
2556706
17117448
23204035
3164191
700550
4573728
667041
21267457
1841329
13238384
4411608
31466388
16777622
16848026
18294220
4800588
4792452
32522412
4225473
3676560
2557844
32484992
13476160
4333665
10496036
132049
2236419
9204762
18387989
4980760
4782097
13660220
4635756
23211033
9274625
4212033
11797890
2101569
8666528
90408
2555957
3940506
3159169
15770240
16787042
8422408
11665425
461826
12895372
21434619
863584
1968384
18369611
20973637
6404100
16868184
23204912
25199456
1197191
17575936
2198544
8932469
22160776
24380421
12815401
14930952
4206653
20481341
5344161
6889611
3146353
4720768
4789265
7002636
5283968
25952267
1638418
18879368
30421760
22210112
24171589
21540865
2912946
29110273
103328
3772548
18385922
3605890
547
13226643
2951296
16787481
9452606
19469634
8733793
4466784
12704
20971684
17408332
12637112
17368353
16779584
2163596
10571978
329860
8522344
792678
19694114
5898590
5409
90266
27837764
20993108
10553408
5195904
530862
22031364
15220739
6339906
22156833
754689
1049026
23597184
15470960
4287488
8798225
11031568
17131401
903873
17041801
1319194
174082
14835714
19188877
4336137
1660674
2294994
4522497
17051897
6333506
10644620
26294273
3801888
2118162
4206617
1245204
557124
1507328
607233
590
4489872
2650370
2625560
7663873
2771972
25800961
8456772
21168196
268810
11671554
3556513
9122584
25378980
1353800
15757456
2127942
13637952
51877
4194424
8389921
21627432
8454792
25176224
23237971
4330115
26873861
6685797
8978713
9185800
4362240
1609892
10486371
131592
11217665
1052737
1118976
75790
8597064
17563648
26257412
10627206
29691136
2777345
13658241
26241644
148929
10486273
18973827
14780442
582216
8398354
5407746
35336
31808010
10846346
681754
413701
30580802
4378626
21479764
7414472
4653107
8635770
14883360
18903042
13914264
2134025
9633797
4972544
1693864
4851360
8446272
18891333
1127697
795298
16910353
1115300
17072391
13378058
18965136
18469124
12132920
1618722
26739331
9109632
3220168
1053200
8603649
14680176
1311504
4719152
28578980
4547586
29464065
18411554
17702248
17301524
135183
25199684
4196737
14681364
13843264
32856
460009
18088966
4325387
4198953
10767366
18101000
1781568
4747392
17990226
17072388
4071936
28444704
4350213
6623362
4491208
23072918
8454212
272656
30741
1344513
7031312
131634
1049798
9241008
19941696
14549761
3283969
2720072
4524298
4423683
2167141
26224977
17319425
12855392
29431939
29461508
8536804
622749
8553484
5670
1146892
11012612
1442066
9463881
4211044
13406379
4638720
17535076
4724964
27443336
279228
9706688
29787420
293521
8979260
21659662
1065997
21577729
7736092
22635530
8653964
4538726
32776280
25404473
922114
17367104
213714
12681856
5921034
6326656
726992
12749833
1673744
13749296
10690611
4195364
17367105
917528
4405344
17925200
4260480
2401438
1835997
31609360
2410498
17506764
8393368
4457633
2433071
12613952
8680224
9528612
431902
15221255
6587432
26552384
4211612
820992
6849280
18908950
3180348
32821376
2238081
17051936
8455689
17375872
12685584
3932303
25429057
74262
17597035
26751183
5786884
6965314
115976
568320
9109644
24666
17041177
614470
8525392
7497120
152576
5933411
17830463
10099976
21262736
2163140
8405990
2235906
17828396
8472768
4784517
98437
18875504
5268576
23202144
8062608
17615232
1065061
20095000
4055060
3418674
17311856
1052773
6702348
2244628
9233200
18104584
16777488
8754768
182656
927744
17830224
544811
6435464
7475328
1648323
8598402
8432420
17957896
26476833
24970255
13960709
8915077
1310729
1475764
1148968
19417736
25563221
5638844
21498070
11678276
16777544
21644296
8540232
6081056
2806854
4210723
8467648
5316
542737
2302465
26479653
22286343
83968
11538501
1474723
16866853
2203863
8577087
5410
7728
16799748
21075712
1517064
2168608
2195588
3166273
7930183
29900812
4407827
3216256
21020928
21023058
9451272
17767762
16840785
26355782
19403307
7472144
8681474
20258818
12615936
8429841
4455488
4338833
135560
713746
21050881
5244961
4202598
770829
19480584
704784
29983232
341321
4720640
8781959
2621811
7358467
5312530
17837068
1376581
2156611
10774801
15222790
854339
19647805
2883697
4272173
1573952
2255424
11551297
583892
4804896
9535888
16925201
26231164
2115848
545032
8912918
8609825
1450437
7448066
10551466
9405066
8407809
8794149
267394
9448517
8899192
16793858
1212518
2267987
12328996
2189568
1970568
2668604
8463632
4884641
3293202
2114568
9593065
25456133
2232704
16434388
79884
1146926
38016
84226
20517900
11974434
21217760
24414856
1097728
8560649
20997
19408468
3285529
70452
2436128
12063749
29599872
30753824
11018379
19695426
6493465
22283330
23268192
401425
266309
2685062
20734225
1322505
13632004
2506925
6315441
61826
90695
2556292
950274
5464105
30439520
8734805
13231216
17074818
4589062
13127714
4268641
30208512
2892808
320838
8588880
7364737
10488033
4196162
26615329
3836163
348837
26780672
26609745
10481665
1836609
65712
22554948
8486930
165504
2824624
4607264
13737990
2155054
2116712
3180624
17211781
8509824
2128729
12591700
6441604
8650770
4195485
1311779
1350008
1056208
25208066
2121765
14680242
25206917
18881338
2003136
923852
11026944
17271280
32637967
2622372
3655939
2138512
7088138
9242118
4204819
21057805
2179136
3756033
24396170
3157475
